timestamp	ch1	ch2	ch3
00:00:00.000	1.289377	1.298168	1.284982
00:00:00.001	1.306960	1.301832	1.298901
00:00:00.001	1.319414	1.311355	1.305495
00:00:00.001	1.323810	1.314286	1.306227
00:00:00.003	1.335531	1.296703	1.290842
00:00:00.003	1.318681	1.286447	1.298901
00:00:00.003	1.345788	1.317216	1.321612
00:00:00.005	1.321612	1.300366	1.314286
00:00:00.005	1.320879	1.286447	1.298901
00:00:00.005	1.332601	1.301099	1.309890
00:00:00.005	1.312821	1.307692	1.306227
00:00:00.005	1.294505	1.306960	1.301832
00:00:00.005	1.293773	1.306960	1.297436
00:00:00.005	1.290842	1.305495	1.287912
00:00:00.005	1.290110	1.318681	1.303297
00:00:00.008	1.279853	1.313553	1.297436
00:00:00.008	1.282784	1.318681	1.293773
00:00:00.008	1.297436	1.315018	1.298901
00:00:00.008	1.297436	1.306227	1.304762
00:00:00.008	1.304029	1.310623	1.300366
00:00:00.008	1.324542	1.312821	1.303297
00:00:00.008	1.336264	1.299634	1.298901
00:00:00.008	1.344322	1.306960	1.318681
00:00:00.010	1.339927	1.298168	1.312821
00:00:00.010	1.336264	1.297436	1.308425
00:00:00.041	1.319414	1.295238	1.298901
00:00:00.041	1.323077	1.310623	1.303297
00:00:00.042	1.295971	1.309158	1.300366
00:00:00.042	1.294505	1.323810	1.300366
00:00:00.043	1.300366	1.331136	1.293773
00:00:00.043	1.281319	1.335531	1.298168
00:00:00.043	1.288645	1.340659	1.297436
00:00:00.044	1.283516	1.314286	1.290842
00:00:00.044	1.295971	1.295971	1.300366
00:00:00.044	1.304762	1.265201	1.306960
00:00:00.045	1.309158	1.251282	1.303297
00:00:00.045	1.315018	1.263004	1.303297
00:00:00.045	1.338462	1.276923	1.299634
00:00:00.046	1.342125	1.271795	1.284249
00:00:00.046	1.344322	1.296703	1.298901
00:00:00.046	1.339927	1.293040	1.305495
00:00:00.047	1.325275	1.293040	1.320879
00:00:00.047	1.324542	1.317949	1.318681
00:00:00.048	1.307692	1.337729	1.321612
00:00:00.048	1.301832	1.335531	1.300366
00:00:00.048	1.299634	1.323810	1.307692
00:00:00.049	1.279853	1.302564	1.297436
00:00:00.049	1.279121	1.314286	1.321612
00:00:00.049	1.285714	1.311355	1.304029
00:00:00.050	1.261538	1.279853	1.291575
00:00:00.050	1.272527	1.289377	1.296703
00:00:00.050	1.282784	1.293773	1.291575
00:00:00.051	1.288645	1.289377	1.297436
00:00:00.051	1.323810	1.346520	1.306227
00:00:00.051	1.303297	1.363370	1.309158
00:00:00.052	1.325275	1.333333	1.308425
00:00:00.052	1.381685	1.316484	1.312821
00:00:00.053	1.386813	1.285714	1.300366
00:00:00.053	1.405128	1.274725	1.312088
00:00:00.053	1.383883	1.261538	1.304762
00:00:00.054	1.336264	1.259341	1.296703
00:00:00.054	1.291575	1.272527	1.302564
00:00:00.054	1.265201	1.273260	1.295238
00:00:00.055	1.230037	1.306227	1.299634
00:00:00.055	1.224908	1.324542	1.265934
00:00:00.055	1.238095	1.328205	1.279121
00:00:00.056	1.273993	1.334066	1.300366
00:00:00.056	1.308425	1.316484	1.308425
00:00:00.057	1.315751	1.313553	1.313553
00:00:00.057	1.317216	1.337729	1.326007
00:00:00.057	1.290110	1.343590	1.320147
00:00:00.058	1.317216	1.338462	1.326740
00:00:00.058	1.326007	1.331136	1.346520
00:00:00.058	1.312088	1.350183	1.315018
00:00:00.059	1.310623	1.324542	1.279853
00:00:00.091	1.306960	1.318681	1.291575
00:00:00.091	1.325275	1.280586	1.290110
00:00:00.092	1.358242	1.266667	1.305495
00:00:00.092	1.356044	1.254212	1.304762
00:00:00.092	1.320879	1.252747	1.302564
00:00:00.094	1.278388	1.256410	1.293040
00:00:00.094	1.249084	1.268864	1.296703
00:00:00.094	1.270330	1.242491	1.282051
00:00:00.094	1.290110	1.243956	1.291575
00:00:00.094	1.306227	1.304762	1.293773
00:00:00.094	1.309158	1.347985	1.297436
00:00:00.095	1.320147	1.372161	1.314286
00:00:00.095	1.332601	1.354579	1.312821
00:00:00.096	1.331136	1.328205	1.303297
00:00:00.096	1.336996	1.317216	1.313553
00:00:00.096	1.334799	1.308425	1.316484
00:00:00.097	1.336264	1.313553	1.309158
00:00:00.097	1.328205	1.316484	1.312821
00:00:00.097	1.323810	1.301832	1.306227
00:00:00.098	1.311355	1.285714	1.300366
00:00:00.098	1.300366	1.294505	1.303297
00:00:00.098	1.286447	1.288645	1.293040
00:00:00.100	1.284982	1.289377	1.291575
00:00:00.100	1.297436	1.309890	1.298901
00:00:00.100	1.291575	1.342125	1.307692
00:00:00.100	1.279121	1.320879	1.294505
00:00:00.100	1.286447	1.321612	1.305495
00:00:00.100	1.306227	1.317949	1.301832
00:00:00.102	1.315751	1.310623	1.300366
00:00:00.102	1.328205	1.305495	1.317216
00:00:00.102	1.331136	1.297436	1.317216
00:00:00.102	1.326740	1.285714	1.312088
00:00:00.102	1.320147	1.252747	1.314286
00:00:00.103	1.319414	1.260073	1.300366
00:00:00.103	1.323810	1.285714	1.312088
00:00:00.103	1.309890	1.295238	1.315018
00:00:00.104	1.293040	1.306960	1.307692
00:00:00.104	1.290842	1.323077	1.304762
00:00:00.104	1.292308	1.314286	1.297436
00:00:00.105	1.280586	1.323077	1.294505
00:00:00.105	1.276923	1.322344	1.295238
00:00:00.105	1.298901	1.328205	1.295971
00:00:00.106	1.300366	1.320879	1.290110
00:00:00.106	1.290110	1.315018	1.298168
00:00:00.107	1.267399	1.300366	1.305495
00:00:00.107	1.309890	1.298168	1.309158
00:00:00.107	1.356044	1.309890	1.311355
00:00:00.108	1.384615	1.338462	1.315018
00:00:00.108	1.400733	1.320147	1.303297
00:00:00.108	1.402930	1.302564	1.317949
00:00:00.141	1.383150	1.288645	1.312821
00:00:00.141	1.331136	1.277656	1.296703
00:00:00.141	1.279853	1.309890	1.296703
00:00:00.142	1.249817	1.292308	1.306227
00:00:00.142	1.245421	1.273260	1.296703
00:00:00.142	1.253480	1.282784	1.299634
00:00:00.143	1.253480	1.287179	1.290842
00:00:00.143	1.265201	1.301832	1.290842
00:00:00.143	1.268132	1.323077	1.293773
00:00:00.144	1.296703	1.337729	1.309158
00:00:00.144	1.315751	1.312821	1.300366
00:00:00.144	1.331136	1.304029	1.303297
00:00:00.146	1.344322	1.300366	1.305495
00:00:00.146	1.341392	1.314286	1.312088
00:00:00.146	1.351648	1.378022	1.309158
00:00:00.146	1.327473	1.434432	1.305495
00:00:00.146	1.328938	1.387546	1.323077
00:00:00.147	1.335531	1.315018	1.323810
00:00:00.147	1.382418	1.253480	1.305495
00:00:00.147	1.291575	1.213187	1.301832
00:00:00.148	1.268132	1.220513	1.304762
00:00:00.148	1.290842	1.213187	1.291575
00:00:00.148	1.331136	1.205861	1.300366
00:00:00.149	1.340659	1.223443	1.290110
00:00:00.149	1.288645	1.276923	1.282051
00:00:00.149	1.257875	1.347253	1.287912
00:00:00.150	1.267399	1.364103	1.295238
00:00:00.150	1.257143	1.367766	1.305495
00:00:00.151	1.268132	1.396337	1.313553
00:00:00.151	1.285714	1.405128	1.313553
00:00:00.151	1.345788	1.340659	1.311355
00:00:00.152	1.339194	1.279853	1.306227
00:00:00.152	1.319414	1.279121	1.309158
00:00:00.152	1.264469	1.273260	1.312821
00:00:00.153	1.229304	1.293773	1.306227
00:00:00.153	1.274725	1.312821	1.306227
00:00:00.153	1.349451	1.271062	1.312821
00:00:00.154	1.391209	1.188278	1.300366
00:00:00.154	1.433700	1.249084	1.303297
00:00:00.155	1.353114	1.308425	1.293040
00:00:00.155	1.295971	1.340659	1.287912
00:00:00.155	1.241026	1.303297	1.289377
00:00:00.156	1.188278	1.272527	1.294505
00:00:00.156	1.249817	1.235165	1.289377
00:00:00.156	1.285714	1.262271	1.291575
00:00:00.157	1.326740	1.320879	1.298901
00:00:00.157	1.372894	1.358242	1.312088
00:00:00.157	1.437363	1.340659	1.306960
00:00:00.158	1.441758	1.325275	1.302564
00:00:00.158	1.383883	1.334066	1.315018
00:00:00.190	1.309890	1.329670	1.312821
00:00:00.191	1.247619	1.314286	1.315018
00:00:00.191	1.251282	1.340659	1.317949
00:00:00.191	1.273993	1.336264	1.309158
00:00:00.192	1.262271	1.291575	1.298901
00:00:00.192	1.246886	1.280586	1.300366
00:00:00.192	1.223443	1.271062	1.287912
00:00:00.194	1.265201	1.290842	1.295238
00:00:00.194	1.298901	1.329670	1.287179
00:00:00.194	1.255678	1.312821	1.288645
00:00:00.194	1.254945	1.318681	1.307692
00:00:00.194	1.314286	1.299634	1.296703
00:00:00.196	1.375824	1.309890	1.305495
00:00:00.196	1.466667	1.315018	1.312088
00:00:00.196	1.460073	1.290842	1.303297
00:00:00.196	1.398535	1.295971	1.317216
00:00:00.196	1.332601	1.278388	1.313553
00:00:00.196	1.257875	1.276923	1.309890
00:00:00.199	1.250549	1.281319	1.293040
00:00:00.199	1.271062	1.304762	1.298168
00:00:00.199	1.290110	1.339927	1.314286
00:00:00.199	1.285714	1.339194	1.314286
00:00:00.199	1.264469	1.340659	1.304762
00:00:00.199	1.272527	1.378755	1.292308
00:00:00.199	1.298168	1.350916	1.280586
00:00:00.199	1.290110	1.312088	1.296703
00:00:00.200	1.298168	1.275458	1.304762
00:00:00.200	1.287179	1.246886	1.293773
00:00:00.200	1.306227	1.256410	1.306227
00:00:00.201	1.317216	1.259341	1.298168
00:00:00.201	1.312088	1.257875	1.297436
00:00:00.201	1.336264	1.288645	1.312088
00:00:00.202	1.327473	1.298168	1.308425
00:00:00.202	1.331868	1.320879	1.313553
00:00:00.202	1.323810	1.309890	1.311355
00:00:00.203	1.326007	1.333333	1.312088
00:00:00.203	1.329670	1.347253	1.315751
00:00:00.204	1.303297	1.324542	1.297436
00:00:00.204	1.289377	1.333333	1.288645
00:00:00.204	1.285714	1.341392	1.300366
00:00:00.205	1.272527	1.315751	1.284249
00:00:00.205	1.290842	1.319414	1.300366
00:00:00.205	1.299634	1.289377	1.291575
00:00:00.206	1.298901	1.273993	1.297436
00:00:00.206	1.309158	1.272527	1.287179
00:00:00.206	1.315751	1.271062	1.283516
00:00:00.207	1.340659	1.312088	1.300366
00:00:00.207	1.345788	1.343590	1.300366
00:00:00.207	1.343590	1.325275	1.315751
00:00:00.208	1.338462	1.277656	1.315751
00:00:00.240	1.330403	1.235165	1.298168
00:00:00.240	1.326007	1.233700	1.299634
00:00:00.241	1.321612	1.254212	1.311355
00:00:00.241	1.309890	1.275458	1.310623
00:00:00.241	1.314286	1.328938	1.308425
00:00:00.242	1.291575	1.359707	1.290842
00:00:00.242	1.284249	1.370696	1.300366
00:00:00.243	1.263004	1.349451	1.295238
00:00:00.243	1.265201	1.336264	1.292308
00:00:00.243	1.259341	1.336996	1.293040
00:00:00.244	1.253480	1.358974	1.297436
00:00:00.244	1.287179	1.323077	1.298168
00:00:00.244	1.342125	1.289377	1.303297
00:00:00.245	1.377289	1.250549	1.315018
00:00:00.245	1.376557	1.211722	1.304762
00:00:00.245	1.265934	1.232967	1.312821
00:00:00.246	1.239560	1.242491	1.303297
00:00:00.246	1.283516	1.261538	1.306960
00:00:00.246	1.329670	1.284982	1.309890
00:00:00.247	1.388278	1.306227	1.306227
00:00:00.247	1.420513	1.303297	1.297436
00:00:00.248	1.393407	1.293773	1.289377
00:00:00.248	1.298901	1.289377	1.282051
00:00:00.248	1.221245	1.330403	1.299634
00:00:00.249	1.183150	1.339194	1.300366
