timestamp	ch1	ch2	ch3
00:00:00.000	1.293040	1.306227	1.309158
00:00:00.001	1.290110	1.323810	1.313553
00:00:00.001	1.287179	1.308425	1.308425
00:00:00.001	1.305495	1.306960	1.312821
00:00:00.002	1.323810	1.306227	1.309890
00:00:00.002	1.327473	1.284249	1.305495
00:00:00.003	1.320147	1.271062	1.308425
00:00:00.003	1.309158	1.281319	1.300366
00:00:00.003	1.314286	1.303297	1.298901
00:00:00.004	1.313553	1.310623	1.296703
00:00:00.004	1.313553	1.315018	1.296703
00:00:00.004	1.309158	1.294505	1.294505
00:00:00.005	1.315751	1.286447	1.298168
00:00:00.005	1.326007	1.290842	1.302564
00:00:00.005	1.318681	1.306960	1.299634
00:00:00.006	1.308425	1.323077	1.307692
00:00:00.006	1.309158	1.320147	1.306227
00:00:00.007	1.312088	1.319414	1.306960
00:00:00.007	1.307692	1.326740	1.316484
00:00:00.007	1.303297	1.323077	1.315751
00:00:00.008	1.303297	1.317949	1.315018
00:00:00.008	1.298901	1.305495	1.314286
00:00:00.008	1.305495	1.316484	1.314286
00:00:00.009	1.302564	1.308425	1.301832
00:00:00.009	1.313553	1.307692	1.304762
00:00:00.041	1.318681	1.308425	1.298168
00:00:00.042	1.322344	1.298168	1.298901
00:00:00.042	1.325275	1.319414	1.296703
00:00:00.042	1.328205	1.331136	1.285714
00:00:00.043	1.338462	1.335531	1.298168
00:00:00.043	1.318681	1.296703	1.290110
00:00:00.043	1.300366	1.285714	1.304029
00:00:00.044	1.297436	1.282784	1.311355
00:00:00.044	1.292308	1.284982	1.309158
00:00:00.044	1.282051	1.287179	1.308425
00:00:00.045	1.290842	1.303297	1.312821
00:00:00.045	1.282784	1.288645	1.305495
00:00:00.045	1.286447	1.288645	1.316484
00:00:00.046	1.297436	1.305495	1.320147
00:00:00.046	1.309158	1.298901	1.300366
00:00:00.047	1.327473	1.295238	1.307692
00:00:00.047	1.332601	1.310623	1.298901
00:00:00.047	1.317949	1.335531	1.297436
00:00:00.048	1.323810	1.331868	1.300366
00:00:00.048	1.319414	1.309890	1.289377
00:00:00.048	1.317949	1.367766	1.298168
00:00:00.049	1.323077	1.402930	1.306227
00:00:00.049	1.312821	1.364103	1.304029
00:00:00.049	1.310623	1.309890	1.306227
00:00:00.050	1.314286	1.262271	1.303297
00:00:00.050	1.320879	1.238828	1.300366
00:00:00.050	1.310623	1.244689	1.300366
00:00:00.052	1.301099	1.246886	1.316484
00:00:00.052	1.297436	1.225641	1.317216
00:00:00.052	1.298901	1.241026	1.310623
00:00:00.052	1.295971	1.246154	1.300366
00:00:00.052	1.287179	1.268864	1.299634
00:00:00.054	1.277656	1.291575	1.296703
00:00:00.054	1.284249	1.298901	1.299634
00:00:00.054	1.326007	1.316484	1.295971
00:00:00.055	1.322344	1.316484	1.279853
00:00:00.055	1.336996	1.336264	1.294505
00:00:00.055	1.331868	1.346520	1.298901
00:00:00.055	1.306227	1.335531	1.296703
00:00:00.055	1.314286	1.336264	1.304762
00:00:00.056	1.301099	1.316484	1.295971
00:00:00.056	1.303297	1.326007	1.299634
00:00:00.056	1.308425	1.331868	1.309158
00:00:00.057	1.252747	1.334799	1.317949
00:00:00.057	1.260073	1.330403	1.315018
00:00:00.057	1.300366	1.353846	1.317949
00:00:00.058	1.326740	1.330403	1.298901
00:00:00.058	1.386813	1.324542	1.307692
00:00:00.058	1.391209	1.282784	1.297436
00:00:00.062	1.367766	1.260073	1.305495
00:00:00.094	1.317216	1.257875	1.300366
00:00:00.094	1.273260	1.232234	1.282051
00:00:00.094	1.273260	1.228571	1.297436
00:00:00.094	1.295971	1.262271	1.292308
00:00:00.094	1.299634	1.314286	1.297436
00:00:00.094	1.288645	1.318681	1.291575
00:00:00.094	1.284249	1.325275	1.304762
00:00:00.094	1.299634	1.342125	1.312821
00:00:00.094	1.309890	1.336264	1.315751
00:00:00.094	1.303297	1.315751	1.300366
00:00:00.094	1.304029	1.315751	1.312821
00:00:00.095	1.304029	1.304029	1.312821
00:00:00.095	1.303297	1.294505	1.310623
00:00:00.096	1.313553	1.301099	1.313553
00:00:00.096	1.323810	1.304762	1.307692
00:00:00.096	1.321612	1.317949	1.311355
00:00:00.097	1.317949	1.317949	1.302564
00:00:00.097	1.308425	1.306227	1.296703
00:00:00.097	1.306227	1.306227	1.299634
00:00:00.098	1.315018	1.312088	1.294505
00:00:00.098	1.314286	1.301832	1.282784
00:00:00.098	1.309890	1.315018	1.302564
00:00:00.099	1.304029	1.319414	1.300366
00:00:00.099	1.307692	1.317216	1.306960
00:00:00.100	1.308425	1.331868	1.309158
00:00:00.100	1.301832	1.320879	1.304762
00:00:00.100	1.307692	1.322344	1.315018
00:00:00.101	1.335531	1.331868	1.312088
00:00:00.101	1.339927	1.305495	1.313553
00:00:00.101	1.323077	1.312821	1.312088
00:00:00.102	1.318681	1.378755	1.310623
00:00:00.102	1.297436	1.309158	1.305495
00:00:00.102	1.308425	1.274725	1.309158
00:00:00.103	1.301832	1.219048	1.300366
00:00:00.104	1.287912	1.134066	1.287179
00:00:00.104	1.301832	1.183883	1.287179
00:00:00.104	1.288645	1.257143	1.281319
00:00:00.104	1.292308	1.302564	1.289377
00:00:00.105	1.298901	1.325275	1.298168
00:00:00.105	1.314286	1.375092	1.300366
00:00:00.105	1.326740	1.361905	1.309158
00:00:00.106	1.334799	1.336996	1.307692
00:00:00.106	1.328938	1.317949	1.303297
00:00:00.106	1.332601	1.318681	1.314286
00:00:00.107	1.300366	1.298901	1.294505
00:00:00.107	1.306227	1.300366	1.317216
00:00:00.107	1.305495	1.285714	1.312088
00:00:00.108	1.284249	1.282051	1.294505
00:00:00.108	1.292308	1.298168	1.311355
00:00:00.108	1.282051	1.303297	1.293773
00:00:00.141	1.309158	1.339927	1.295971
00:00:00.141	1.306227	1.365568	1.296703
00:00:00.141	1.309890	1.345055	1.287912
00:00:00.142	1.309890	1.336264	1.295238
00:00:00.142	1.306227	1.334799	1.298901
00:00:00.142	1.295971	1.321612	1.289377
00:00:00.143	1.315751	1.314286	1.310623
00:00:00.143	1.314286	1.255678	1.306960
00:00:00.143	1.314286	1.252015	1.304762
00:00:00.144	1.316484	1.278388	1.312088
00:00:00.144	1.317216	1.288645	1.318681
00:00:00.145	1.312088	1.264469	1.314286
00:00:00.145	1.315751	1.276923	1.314286
00:00:00.145	1.307692	1.282784	1.304029
00:00:00.146	1.325275	1.304029	1.313553
00:00:00.146	1.328205	1.307692	1.312821
00:00:00.146	1.315018	1.290110	1.304762
00:00:00.147	1.314286	1.302564	1.306960
00:00:00.147	1.315751	1.315751	1.303297
00:00:00.147	1.305495	1.334066	1.300366
00:00:00.148	1.317949	1.338462	1.293040
00:00:00.148	1.322344	1.342857	1.293040
00:00:00.148	1.309158	1.339927	1.296703
00:00:00.150	1.312088	1.331136	1.298901
00:00:00.150	1.279853	1.312821	1.287912
00:00:00.150	1.288645	1.283516	1.297436
00:00:00.153	1.300366	1.295971	1.298901
00:00:00.153	1.305495	1.295971	1.312821
00:00:00.153	1.290842	1.293773	1.320147
00:00:00.153	1.284249	1.279121	1.307692
00:00:00.153	1.284249	1.288645	1.314286
00:00:00.153	1.260806	1.315018	1.312088
00:00:00.153	1.280586	1.311355	1.310623
00:00:00.153	1.336264	1.320147	1.302564
00:00:00.153	1.363370	1.315751	1.293773
00:00:00.153	1.400000	1.343590	1.309890
00:00:00.154	1.383883	1.378022	1.302564
00:00:00.154	1.351648	1.380220	1.296703
00:00:00.154	1.307692	1.364835	1.286447
00:00:00.158	1.272527	1.350916	1.298901
00:00:00.158	1.270330	1.337729	1.295238
00:00:00.158	1.303297	1.282051	1.315018
00:00:00.158	1.294505	1.235165	1.309890
00:00:00.158	1.290110	1.188278	1.300366
00:00:00.158	1.309158	1.193407	1.315751
00:00:00.158	1.290110	1.156044	1.297436
00:00:00.158	1.298901	1.224908	1.307692
00:00:00.158	1.320879	1.268864	1.314286
00:00:00.158	1.314286	1.278388	1.298168
00:00:00.158	1.309890	1.339194	1.297436
00:00:00.190	1.301832	1.355311	1.297436
00:00:00.191	1.298168	1.333333	1.288645
00:00:00.191	1.313553	1.337729	1.290110
00:00:00.191	1.309158	1.339194	1.293040
00:00:00.192	1.287912	1.352381	1.293773
00:00:00.192	1.311355	1.359707	1.294505
00:00:00.192	1.315018	1.350183	1.298901
00:00:00.193	1.306227	1.391209	1.300366
00:00:00.193	1.300366	1.380952	1.306960
00:00:00.194	1.286447	1.336264	1.308425
00:00:00.194	1.279853	1.273260	1.315018
00:00:00.194	1.300366	1.234432	1.317216
00:00:00.195	1.329670	1.230037	1.320147
00:00:00.195	1.343590	1.224908	1.321612
00:00:00.195	1.319414	1.234432	1.315018
00:00:00.196	1.306227	1.284249	1.304029
00:00:00.196	1.312821	1.331868	1.295238
00:00:00.196	1.312821	1.300366	1.297436
00:00:00.197	1.309890	1.256410	1.289377
00:00:00.197	1.301832	1.254945	1.280586
00:00:00.197	1.321612	1.279121	1.289377
00:00:00.198	1.323810	1.320879	1.290842
00:00:00.198	1.309158	1.336264	1.297436
00:00:00.199	1.308425	1.347985	1.298168
00:00:00.199	1.312088	1.360440	1.306227
00:00:00.199	1.306960	1.347253	1.309158
00:00:00.200	1.309158	1.329670	1.312821
00:00:00.200	1.310623	1.317949	1.312821
00:00:00.200	1.306960	1.321612	1.322344
00:00:00.201	1.306227	1.318681	1.315018
00:00:00.201	1.292308	1.296703	1.304029
00:00:00.201	1.280586	1.276190	1.301832
00:00:00.202	1.304762	1.290110	1.303297
00:00:00.202	1.311355	1.273260	1.284982
00:00:00.203	1.327473	1.308425	1.298901
00:00:00.203	1.319414	1.326007	1.298168
00:00:00.203	1.319414	1.323810	1.294505
00:00:00.204	1.319414	1.323077	1.297436
00:00:00.204	1.325275	1.306227	1.293040
00:00:00.204	1.313553	1.294505	1.287179
00:00:00.205	1.309158	1.345055	1.300366
00:00:00.205	1.304762	1.323810	1.306960
00:00:00.205	1.292308	1.294505	1.311355
00:00:00.206	1.302564	1.292308	1.302564
00:00:00.206	1.287179	1.279853	1.305495
00:00:00.206	1.304762	1.286447	1.321612
00:00:00.207	1.309158	1.286447	1.317216
00:00:00.207	1.306227	1.300366	1.308425
00:00:00.208	1.309158	1.325275	1.310623
00:00:00.208	1.309890	1.325275	1.304762
00:00:00.240	1.293040	1.302564	1.291575
00:00:00.240	1.326007	1.300366	1.304029
00:00:00.241	1.325275	1.295238	1.300366
00:00:00.241	1.312088	1.298901	1.295971
00:00:00.241	1.321612	1.289377	1.293040
00:00:00.242	1.315751	1.287179	1.290110
00:00:00.242	1.315018	1.311355	1.312088
00:00:00.243	1.311355	1.320879	1.309158
00:00:00.243	1.260073	1.326007	1.300366
00:00:00.243	1.259341	1.347985	1.304762
00:00:00.244	1.285714	1.336264	1.310623
00:00:00.244	1.315751	1.329670	1.303297
00:00:00.244	1.367033	1.300366	1.317949
00:00:00.245	1.381685	1.264469	1.315018
00:00:00.245	1.361172	1.255678	1.315018
00:00:00.245	1.339194	1.313553	1.313553
00:00:00.247	1.304762	1.292308	1.304762
00:00:00.247	1.272527	1.278388	1.303297
00:00:00.247	1.282051	1.259341	1.293040
00:00:00.249	1.288645	1.232967	1.286447
00:00:00.249	1.306227	1.280586	1.289377
00:00:00.249	1.306227	1.299634	1.300366
00:00:00.249	1.293773	1.304762	1.290110
00:00:00.249	1.283516	1.319414	1.300366
00:00:00.249	1.266667	1.310623	1.306960
00:00:00.249	1.273993	1.293773	1.295971
00:00:00.249	1.304029	1.349451	1.306227
00:00:00.251	1.302564	1.402198	1.305495
00:00:00.251	1.307692	1.376557	1.315751
00:00:00.251	1.323810	1.310623	1.319414
00:00:00.251	1.326007	1.271062	1.320147
00:00:00.251	1.312088	1.266667	1.306960
00:00:00.256	1.315751	1.263004	1.304762
00:00:00.256	1.304029	1.269597	1.300366
00:00:00.256	1.311355	1.288645	1.287179
00:00:00.256	1.327473	1.324542	1.297436
00:00:00.256	1.306227	1.340659	1.287912
00:00:00.256	1.322344	1.339194	1.296703
00:00:00.256	1.327473	1.325275	1.285714
00:00:00.256	1.318681	1.293040	1.300366
00:00:00.256	1.311355	1.276923	1.290842
00:00:00.256	1.297436	1.285714	1.292308
00:00:00.256	1.287912	1.293773	1.300366
00:00:00.256	1.282784	1.292308	1.312821
00:00:00.256	1.269597	1.296703	1.308425
00:00:00.256	1.294505	1.323077	1.311355
00:00:00.257	1.320147	1.327473	1.315018
00:00:00.257	1.339927	1.308425	1.309890
00:00:00.257	1.348718	1.298901	1.314286
00:00:00.258	1.334066	1.299634	1.301832
00:00:00.290	1.323810	1.308425	1.308425
00:00:00.290	1.312821	1.314286	1.296703
00:00:00.290	1.317216	1.320879	1.300366
00:00:00.291	1.317949	1.339194	1.299634
00:00:00.291	1.312821	1.319414	1.295238
00:00:00.292	1.302564	1.309158	1.295238
00:00:00.292	1.308425	1.315018	1.300366
00:00:00.292	1.292308	1.306227	1.301832
00:00:00.293	1.295238	1.318681	1.303297
00:00:00.293	1.312821	1.314286	1.304029
00:00:00.293	1.313553	1.292308	1.310623
00:00:00.294	1.306227	1.297436	1.306227
00:00:00.294	1.311355	1.301099	1.309890
00:00:00.294	1.302564	1.277656	1.300366
00:00:00.295	1.298168	1.288645	1.305495
00:00:00.295	1.309890	1.297436	1.300366
00:00:00.295	1.294505	1.300366	1.304762
00:00:00.296	1.307692	1.333333	1.304029
00:00:00.296	1.313553	1.400733	1.296703
00:00:00.297	1.319414	1.381685	1.306960
00:00:00.297	1.319414	1.287179	1.300366
00:00:00.297	1.304029	1.216117	1.297436
00:00:00.298	1.298901	1.200000	1.306227
00:00:00.298	1.312088	1.227839	1.307692
00:00:00.298	1.301832	1.210256	1.290842
00:00:00.299	1.310623	1.228571	1.303297
00:00:00.299	1.309890	1.288645	1.309158
00:00:00.299	1.303297	1.331136	1.298168
00:00:00.300	1.309158	1.339927	1.300366
00:00:00.300	1.300366	1.337729	1.307692
00:00:00.301	1.304762	1.337729	1.315018
00:00:00.301	1.324542	1.331868	1.309890
00:00:00.301	1.310623	1.313553	1.300366
00:00:00.302	1.320147	1.315018	1.309158
00:00:00.302	1.326007	1.319414	1.302564
00:00:00.302	1.317216	1.313553	1.302564
00:00:00.303	1.320879	1.320879	1.298901
00:00:00.303	1.327473	1.319414	1.297436
00:00:00.303	1.323810	1.323077	1.282784
00:00:00.304	1.327473	1.367766	1.304029
00:00:00.304	1.314286	1.345055	1.289377
00:00:00.304	1.290110	1.318681	1.296703
00:00:00.305	1.274725	1.287179	1.291575
00:00:00.305	1.275458	1.290110	1.306960
00:00:00.306	1.244689	1.302564	1.315751
00:00:00.306	1.254212	1.298901	1.320147
00:00:00.306	1.268864	1.259341	1.298901
00:00:00.307	1.311355	1.269597	1.317949
00:00:00.307	1.337729	1.248352	1.303297
00:00:00.307	1.371429	1.264469	1.307692
00:00:00.339	1.375092	1.290842	1.304029
00:00:00.340	1.344322	1.306960	1.304762
00:00:00.340	1.298901	1.331868	1.305495
00:00:00.341	1.274725	1.356044	1.300366
00:00:00.341	1.304029	1.344322	1.296703
00:00:00.341	1.312821	1.322344	1.292308
00:00:00.342	1.323810	1.320147	1.306960
00:00:00.342	1.316484	1.312821	1.300366
00:00:00.342	1.315018	1.302564	1.301832
00:00:00.347	1.308425	1.296703	1.304029
00:00:00.347	1.299634	1.303297	1.313553
00:00:00.347	1.310623	1.306960	1.321612
00:00:00.347	1.315751	1.305495	1.323077
00:00:00.347	1.303297	1.292308	1.304029
00:00:00.347	1.319414	1.303297	1.311355
00:00:00.347	1.317949	1.289377	1.309158
00:00:00.347	1.315018	1.287912	1.304029
00:00:00.347	1.289377	1.297436	1.294505
00:00:00.347	1.300366	1.305495	1.295238
00:00:00.347	1.306960	1.312821	1.300366
00:00:00.347	1.292308	1.307692	1.295971
00:00:00.347	1.305495	1.318681	1.296703
00:00:00.347	1.309158	1.320879	1.298901
00:00:00.351	1.304029	1.309890	1.292308
00:00:00.351	1.317216	1.323810	1.309890
00:00:00.351	1.309890	1.315751	1.304029
00:00:00.351	1.306960	1.306227	1.304029
00:00:00.351	1.311355	1.318681	1.300366
00:00:00.351	1.300366	1.309890	1.304762
00:00:00.351	1.298168	1.293773	1.309890
00:00:00.351	1.310623	1.263736	1.306960
00:00:00.351	1.297436	1.271062	1.332601
00:00:00.351	1.319414	1.279853	1.327473
00:00:00.351	1.332601	1.276190	1.309890
00:00:00.352	1.320147	1.282051	1.304762
00:00:00.352	1.312088	1.309158	1.308425
00:00:00.352	1.312088	1.315751	1.297436
00:00:00.353	1.316484	1.328938	1.295238
00:00:00.353	1.310623	1.327473	1.287912
00:00:00.353	1.306960	1.331136	1.290110
00:00:00.354	1.296703	1.331868	1.300366
00:00:00.354	1.297436	1.329670	1.295238
00:00:00.355	1.296703	1.325275	1.304029
00:00:00.355	1.298901	1.307692	1.330403
00:00:00.355	1.304029	1.293773	1.328938
00:00:00.356	1.328205	1.301832	1.326007
00:00:00.356	1.321612	1.297436	1.310623
00:00:00.356	1.320879	1.298901	1.313553
00:00:00.357	1.306960	1.283516	1.295238
00:00:00.357	1.296703	1.277656	1.318681
00:00:00.389	1.307692	1.291575	1.295238
00:00:00.390	1.323810	1.297436	1.253480
00:00:00.390	1.329670	1.307692	1.256410
00:00:00.390	1.317949	1.306227	1.265934
00:00:00.391	1.311355	1.309890	1.294505
00:00:00.391	1.305495	1.316484	1.298901
00:00:00.391	1.304029	1.301832	1.288645
00:00:00.392	1.301832	1.304029	1.291575
00:00:00.392	1.299634	1.304029	1.309158
00:00:00.392	1.304029	1.315751	1.322344
00:00:00.393	1.282784	1.291575	1.304762
00:00:00.393	1.301099	1.297436	1.306227
00:00:00.394	1.300366	1.295238	1.301832
00:00:00.394	1.312088	1.299634	1.313553
00:00:00.394	1.311355	1.304762	1.314286
00:00:00.395	1.249817	1.304029	1.313553
00:00:00.395	1.268132	1.298168	1.290842
00:00:00.395	1.298901	1.296703	1.312821
00:00:00.396	1.338462	1.305495	1.321612
00:00:00.397	1.373626	1.308425	1.308425
00:00:00.397	1.380952	1.311355	1.309890
00:00:00.397	1.379487	1.317216	1.335531
00:00:00.397	1.325275	1.312088	1.339927
00:00:00.397	1.250549	1.299634	1.300366
00:00:00.398	1.256410	1.312821	1.289377
00:00:00.398	1.284982	1.306227	1.284249
00:00:00.399	1.301099	1.312821	1.298901
00:00:00.399	1.315018	1.308425	1.307692
00:00:00.399	1.312088	1.293040	1.296703
00:00:00.400	1.318681	1.295971	1.312088
00:00:00.400	1.314286	1.295238	1.312088
00:00:00.400	1.298901	1.288645	1.307692
00:00:00.401	1.306227	1.285714	1.297436
00:00:00.401	1.304762	1.299634	1.295238
00:00:00.401	1.299634	1.303297	1.301832
00:00:00.402	1.299634	1.299634	1.298901
00:00:00.402	1.301099	1.304029	1.287912
00:00:00.402	1.303297	1.304762	1.287912
00:00:00.403	1.310623	1.312821	1.296703
00:00:00.403	1.304762	1.295971	1.278388
00:00:00.404	1.317949	1.308425	1.297436
00:00:00.404	1.316484	1.306960	1.298168
00:00:00.404	1.316484	1.307692	1.304029
00:00:00.406	1.317949	1.304029	1.310623
00:00:00.406	1.323077	1.312088	1.311355
00:00:00.406	1.306227	1.307692	1.317949
00:00:00.407	1.300366	1.299634	1.312821
00:00:00.407	1.299634	1.303297	1.313553
00:00:00.407	1.297436	1.295971	1.298901
00:00:00.407	1.305495	1.309158	1.310623
00:00:00.441	1.309890	1.323810	1.310623
00:00:00.441	1.313553	1.331868	1.300366
00:00:00.441	1.319414	1.324542	1.300366
00:00:00.441	1.306227	1.311355	1.291575
00:00:00.441	1.312821	1.304029	1.291575
00:00:00.441	1.321612	1.314286	1.295971
00:00:00.441	1.328205	1.315751	1.295971
00:00:00.441	1.312088	1.304762	1.309158
00:00:00.442	1.314286	1.275458	1.307692
00:00:00.442	1.301832	1.263736	1.300366
00:00:00.443	1.307692	1.287912	1.315018
00:00:00.443	1.309158	1.299634	1.317949
00:00:00.443	1.317949	1.293773	1.307692
00:00:00.448	1.318681	1.298901	1.320879
00:00:00.448	1.323077	1.313553	1.312088
00:00:00.448	1.317216	1.320879	1.316484
00:00:00.448	1.301099	1.295238	1.310623
00:00:00.448	1.304029	1.282784	1.309158
00:00:00.448	1.297436	1.269597	1.293040
00:00:00.448	1.300366	1.291575	1.299634
00:00:00.448	1.293040	1.305495	1.300366
00:00:00.448	1.302564	1.312088	1.293773
00:00:00.448	1.312088	1.317949	1.296703
00:00:00.448	1.311355	1.328938	1.299634
00:00:00.448	1.300366	1.323077	1.295971
00:00:00.448	1.295971	1.309158	1.293773
00:00:00.449	1.304762	1.319414	1.293773
00:00:00.449	1.294505	1.301832	1.284249
00:00:00.449	1.298168	1.299634	1.300366
00:00:00.449	1.304029	1.302564	1.310623
00:00:00.450	1.312088	1.304029	1.346520
00:00:00.450	1.301832	1.291575	1.323810
00:00:00.450	1.309158	1.298168	1.308425
00:00:00.451	1.310623	1.299634	1.314286
00:00:00.451	1.320147	1.304029	1.309158
00:00:00.451	1.323810	1.298901	1.291575
00:00:00.452	1.323077	1.306960	1.293040
00:00:00.452	1.329670	1.316484	1.295971
00:00:00.453	1.316484	1.309158	1.283516
00:00:00.453	1.323810	1.321612	1.291575
00:00:00.453	1.314286	1.315018	1.284982
00:00:00.454	1.304029	1.305495	1.287912
00:00:00.454	1.311355	1.306960	1.305495
00:00:00.454	1.320879	1.307692	1.304762
00:00:00.455	1.313553	1.303297	1.290110
00:00:00.455	1.322344	1.307692	1.308425
00:00:00.455	1.312821	1.296703	1.331868
00:00:00.456	1.300366	1.291575	1.322344
00:00:00.456	1.306227	1.298168	1.317216
00:00:00.456	1.301099	1.298168	1.309158
00:00:00.489	1.297436	1.310623	1.315018
00:00:00.489	1.287179	1.312088	1.302564
00:00:00.489	1.291575	1.284982	1.284982
00:00:00.490	1.306960	1.310623	1.305495
00:00:00.490	1.319414	1.314286	1.295971
00:00:00.490	1.305495	1.317216	1.296703
00:00:00.491	1.312088	1.328205	1.302564
00:00:00.491	1.310623	1.324542	1.295971
00:00:00.492	1.309158	1.319414	1.303297
00:00:00.492	1.306960	1.317216	1.306960
00:00:00.492	1.302564	1.298168	1.298168
00:00:00.493	1.323810	1.306227	1.310623
00:00:00.493	1.312821	1.300366	1.307692
00:00:00.493	1.308425	1.287912	1.311355
00:00:00.494	1.297436	1.282051	1.309890
00:00:00.494	1.298168	1.271795	1.312821
00:00:00.494	1.298168	1.274725	1.295971
00:00:00.495	1.299634	1.298901	1.308425
00:00:00.495	1.311355	1.306227	1.303297
00:00:00.495	1.300366	1.304029	1.297436
00:00:00.496	1.300366	1.313553	1.293040
00:00:00.496	1.315751	1.315751	1.289377
00:00:00.497	1.314286	1.321612	1.300366
00:00:00.497	1.317949	1.320147	1.298901
00:00:00.497	1.329670	1.312088	1.308425
00:00:00.498	1.326740	1.312088	1.306227
00:00:00.498	1.318681	1.315751	1.301832
00:00:00.498	1.296703	1.301099	1.298168
00:00:00.499	1.309890	1.308425	1.311355
00:00:00.499	1.309158	1.298901	1.315018
00:00:00.499	1.265201	1.296703	1.313553
00:00:00.500	1.259341	1.292308	1.315018
00:00:00.502	1.293773	1.290842	1.306960
00:00:00.503	1.329670	1.296703	1.313553
00:00:00.503	1.350916	1.293773	1.306227
00:00:00.503	1.370696	1.294505	1.298901
00:00:00.503	1.372894	1.312088	1.300366
00:00:00.503	1.339927	1.321612	1.303297
00:00:00.503	1.293040	1.318681	1.297436
00:00:00.503	1.261538	1.306960	1.290842
00:00:00.503	1.279853	1.311355	1.293773
00:00:00.503	1.291575	1.311355	1.298168
00:00:00.505	1.300366	1.315018	1.290842
00:00:00.505	1.317216	1.334066	1.312088
00:00:00.505	1.316484	1.317949	1.307692
00:00:00.505	1.294505	1.294505	1.302564
00:00:00.506	1.317216	1.295238	1.315751
00:00:00.506	1.300366	1.287912	1.300366
00:00:00.506	1.296703	1.286447	1.308425
00:00:00.506	1.305495	1.292308	1.300366
00:00:00.539	1.298901	1.286447	1.285714
00:00:00.539	1.315751	1.303297	1.293040
00:00:00.539	1.309158	1.314286	1.280586
00:00:00.539	1.306227	1.313553	1.282784
00:00:00.545	1.323810	1.323077	1.390476
00:00:00.545	1.299634	1.298901	1.346520
00:00:00.545	1.307692	1.304029	1.303297
00:00:00.545	1.321612	1.310623	1.315018
00:00:00.545	1.311355	1.310623	1.273993
00:00:00.545	1.306227	1.306227	1.271062
00:00:00.545	1.304029	1.306960	1.291575
00:00:00.545	1.306227	1.306227	1.298901
00:00:00.545	1.309890	1.303297	1.296703
00:00:00.545	1.300366	1.296703	1.302564
00:00:00.545	1.306227	1.301099	1.315018
00:00:00.545	1.306960	1.293773	1.312088
00:00:00.545	1.313553	1.291575	1.312821
00:00:00.545	1.315751	1.300366	1.312821
00:00:00.545	1.308425	1.300366	1.303297
00:00:00.545	1.304029	1.304029	1.294505
00:00:00.546	1.312821	1.310623	1.298901
00:00:00.546	1.320147	1.309158	1.291575
00:00:00.546	1.327473	1.310623	1.300366
00:00:00.547	1.317949	1.317216	1.297436
00:00:00.547	1.304029	1.315018	1.300366
00:00:00.547	1.312088	1.326007	1.309158
00:00:00.548	1.304762	1.312821	1.298168
00:00:00.548	1.300366	1.294505	1.295238
00:00:00.548	1.310623	1.306227	1.309890
00:00:00.549	1.305495	1.297436	1.316484
00:00:00.549	1.306227	1.301099	1.317216
00:00:00.549	1.308425	1.284249	1.313553
00:00:00.550	1.293773	1.279853	1.309890
00:00:00.550	1.304762	1.295238	1.311355
00:00:00.551	1.305495	1.295238	1.300366
00:00:00.551	1.303297	1.288645	1.301832
00:00:00.551	1.322344	1.296703	1.298168
00:00:00.552	1.318681	1.295238	1.295971
00:00:00.552	1.300366	1.296703	1.297436
00:00:00.553	1.320879	1.308425	1.298168
00:00:00.553	1.306227	1.308425	1.286447
00:00:00.553	1.321612	1.323810	1.297436
00:00:00.553	1.306227	1.315018	1.295971
00:00:00.554	1.300366	1.319414	1.309890
00:00:00.554	1.306227	1.316484	1.304029
00:00:00.554	1.306227	1.317216	1.312088
00:00:00.555	1.315018	1.319414	1.318681
00:00:00.555	1.304762	1.312821	1.312821
00:00:00.556	1.293040	1.290842	1.311355
00:00:00.556	1.323077	1.302564	1.317949
00:00:00.588	1.317216	1.311355	1.308425
00:00:00.588	1.317949	1.309158	1.300366
00:00:00.589	1.309890	1.301099	1.303297
00:00:00.589	1.309890	1.300366	1.296703
00:00:00.590	1.319414	1.319414	1.306227
00:00:00.590	1.313553	1.315751	1.300366
00:00:00.590	1.304762	1.317949	1.295238
00:00:00.591	1.317949	1.344322	1.298168
00:00:00.591	1.306227	1.298168	1.284249
00:00:00.591	1.314286	1.293040	1.306227
00:00:00.592	1.298901	1.289377	1.306227
00:00:00.592	1.301099	1.294505	1.309890
00:00:00.592	1.304029	1.309158	1.320879
00:00:00.593	1.311355	1.300366	1.319414
00:00:00.593	1.303297	1.265201	1.314286
00:00:00.593	1.301832	1.239560	1.293040
00:00:00.594	1.291575	1.251282	1.293773
00:00:00.594	1.289377	1.277656	1.302564
00:00:00.595	1.308425	1.310623	1.304029
00:00:00.595	1.298901	1.309158	1.292308
00:00:00.595	1.315751	1.330403	1.306960
00:00:00.596	1.324542	1.323810	1.298901
00:00:00.596	1.320147	1.315018	1.287912
00:00:00.596	1.320147	1.324542	1.295238
00:00:00.597	1.315751	1.313553	1.288645
00:00:00.597	1.317949	1.319414	1.298168
00:00:00.597	1.307692	1.313553	1.300366
00:00:00.599	1.306227	1.312088	1.307692
00:00:00.599	1.305495	1.306960	1.306227
00:00:00.599	1.298901	1.299634	1.302564
00:00:00.600	1.290842	1.285714	1.297436
00:00:00.600	1.301832	1.305495	1.315018
00:00:00.600	1.297436	1.298901	1.331136
00:00:00.600	1.306227	1.308425	1.345055
00:00:00.600	1.317216	1.308425	1.317216
00:00:00.602	1.312821	1.302564	1.293040
00:00:00.602	1.308425	1.304762	1.296703
00:00:00.602	1.317949	1.320879	1.295238
00:00:00.603	1.320147	1.345055	1.293773
00:00:00.603	1.319414	1.359707	1.303297
00:00:00.603	1.312088	1.356044	1.299634
00:00:00.603	1.304029	1.334799	1.288645
00:00:00.603	1.316484	1.317216	1.307692
00:00:00.603	1.312821	1.270330	1.307692
00:00:00.608	1.306227	1.250549	1.304029
00:00:00.608	1.312088	1.263736	1.317949
00:00:00.608	1.309890	1.256410	1.309890
00:00:00.608	1.327473	1.264469	1.318681
00:00:00.608	1.315018	1.273260	1.312088
00:00:00.608	1.309890	1.282051	1.304762
00:00:00.640	1.271062	1.302564	1.317949
00:00:00.640	1.268864	1.312088	1.312821
00:00:00.640	1.287912	1.295971	1.299634
00:00:00.640	1.327473	1.316484	1.310623
00:00:00.640	1.334066	1.312821	1.268864
00:00:00.640	1.353846	1.322344	1.279853
00:00:00.640	1.328938	1.321612	1.273993
00:00:00.640	1.315018	1.328205	1.287912
00:00:00.641	1.298901	1.331868	1.306227
00:00:00.641	1.271795	1.322344	1.332601
00:00:00.641	1.279121	1.311355	1.336264
00:00:00.642	1.304029	1.309890	1.323810
00:00:00.642	1.306227	1.307692	1.322344
00:00:00.642	1.304029	1.306227	1.322344
00:00:00.643	1.304762	1.301099	1.303297
00:00:00.643	1.297436	1.299634	1.295971
00:00:00.644	1.317216	1.297436	1.295971
00:00:00.644	1.310623	1.306227	1.283516
00:00:00.644	1.312821	1.307692	1.294505
00:00:00.645	1.315751	1.297436	1.299634
00:00:00.645	1.311355	1.294505	1.315018
00:00:00.645	1.315018	1.306960	1.314286
00:00:00.646	1.314286	1.310623	1.319414
00:00:00.646	1.317216	1.318681	1.320879
00:00:00.646	1.315018	1.320147	1.306960
00:00:00.647	1.303297	1.305495	1.299634
00:00:00.647	1.307692	1.307692	1.311355
00:00:00.647	1.304762	1.298901	1.279853
00:00:00.648	1.312088	1.304762	1.284982
00:00:00.648	1.320147	1.311355	1.283516
00:00:00.649	1.317216	1.323810	1.312088
00:00:00.649	1.312088	1.324542	1.338462
00:00:00.649	1.303297	1.309158	1.320879
00:00:00.650	1.305495	1.279853	1.304029
00:00:00.650	1.311355	1.282051	1.315751
00:00:00.650	1.305495	1.282051	1.306227
00:00:00.651	1.313553	1.287179	1.298901
00:00:00.651	1.313553	1.289377	1.287912
00:00:00.651	1.301832	1.305495	1.281319
00:00:00.652	1.315018	1.334799	1.288645
00:00:00.652	1.310623	1.352381	1.275458
00:00:00.653	1.319414	1.344322	1.296703
00:00:00.653	1.309158	1.309890	1.305495
00:00:00.653	1.289377	1.283516	1.300366
00:00:00.654	1.301832	1.282051	1.298901
00:00:00.654	1.313553	1.306227	1.306960
00:00:00.654	1.306227	1.322344	1.322344
00:00:00.655	1.300366	1.304029	1.330403
00:00:00.655	1.285714	1.269597	1.309890
00:00:00.655	1.298168	1.272527	1.320147
00:00:00.688	1.312088	1.279121	1.317216
00:00:00.688	1.316484	1.313553	1.323810
00:00:00.688	1.312088	1.306960	1.313553
00:00:00.689	1.317949	1.282784	1.294505
00:00:00.689	1.339194	1.300366	1.303297
00:00:00.689	1.344322	1.323810	1.282051
00:00:00.690	1.315751	1.328205	1.290110
00:00:00.690	1.296703	1.316484	1.269597
00:00:00.690	1.291575	1.303297	1.271795
00:00:00.691	1.295238	1.305495	1.279853
00:00:00.691	1.310623	1.313553	1.291575
00:00:00.691	1.312821	1.315751	1.319414
00:00:00.694	1.301099	1.263736	1.308425
00:00:00.694	1.301832	1.245421	1.287179
00:00:00.694	1.301832	1.265934	1.293773
00:00:00.694	1.309890	1.278388	1.331136
00:00:00.694	1.307692	1.293773	1.333333
00:00:00.694	1.293773	1.282784	1.316484
00:00:00.694	1.308425	1.315018	1.305495
00:00:00.694	1.317216	1.346520	1.301832
00:00:00.696	1.309158	1.368498	1.298168
00:00:00.696	1.314286	1.377289	1.295238
00:00:00.696	1.323810	1.373626	1.300366
00:00:00.696	1.321612	1.357509	1.306960
00:00:00.697	1.315018	1.338462	1.306227
00:00:00.697	1.310623	1.301099	1.301832
00:00:00.697	1.317216	1.266667	1.305495
00:00:00.697	1.306227	1.283516	1.300366
00:00:00.702	1.314286	1.312088	1.320879
00:00:00.702	1.309158	1.301099	1.309890
00:00:00.702	1.315018	1.306960	1.314286
00:00:00.702	1.315751	1.297436	1.317216
00:00:00.702	1.309890	1.284982	1.306960
00:00:00.702	1.309158	1.290842	1.310623
00:00:00.702	1.313553	1.284982	1.312821
00:00:00.702	1.313553	1.289377	1.307692
00:00:00.702	1.296703	1.276190	1.300366
00:00:00.702	1.304029	1.279121	1.301832
00:00:00.702	1.309158	1.284249	1.294505
00:00:00.702	1.321612	1.303297	1.300366
00:00:00.702	1.315751	1.305495	1.288645
00:00:00.702	1.305495	1.309158	1.288645
00:00:00.703	1.296703	1.305495	1.299634
00:00:00.703	1.302564	1.300366	1.301832
00:00:00.703	1.304762	1.294505	1.304762
00:00:00.704	1.308425	1.296703	1.310623
00:00:00.704	1.301832	1.300366	1.307692
00:00:00.704	1.302564	1.308425	1.309890
00:00:00.705	1.304029	1.311355	1.312821
00:00:00.705	1.298901	1.307692	1.316484
00:00:00.737	1.315751	1.315751	1.315751
00:00:00.738	1.315751	1.313553	1.309890
00:00:00.738	1.310623	1.298901	1.300366
00:00:00.738	1.320147	1.312821	1.301832
00:00:00.739	1.323077	1.318681	1.298901
00:00:00.739	1.319414	1.332601	1.298901
00:00:00.739	1.309158	1.315018	1.288645
00:00:00.740	1.326007	1.320879	1.293773
00:00:00.740	1.326007	1.320879	1.296703
00:00:00.740	1.309890	1.317949	1.300366
00:00:00.742	1.303297	1.306960	1.298901
00:00:00.742	1.275458	1.301832	1.303297
00:00:00.742	1.281319	1.297436	1.314286
00:00:00.742	1.270330	1.284249	1.299634
00:00:00.742	1.284982	1.298168	1.297436
00:00:00.743	1.304762	1.303297	1.312821
00:00:00.743	1.298901	1.296703	1.311355
00:00:00.743	1.324542	1.315018	1.316484
00:00:00.744	1.326007	1.282051	1.310623
00:00:00.744	1.314286	1.243223	1.303297
00:00:00.744	1.325275	1.247619	1.299634
00:00:00.745	1.315751	1.265934	1.285714
00:00:00.745	1.309158	1.315018	1.299634
00:00:00.745	1.317949	1.337729	1.300366
00:00:00.746	1.312088	1.344322	1.295238
