timestamp	ch1	ch2	ch3
00:00:00.000	1.273993	1.265934	1.303297
00:00:00.001	1.256410	1.284249	1.302564
00:00:00.001	1.286447	1.297436	1.314286
00:00:00.002	1.284249	1.300366	1.311355
00:00:00.002	1.307692	1.323810	1.314286
00:00:00.002	1.303297	1.347985	1.308425
00:00:00.003	1.331136	1.409524	1.311355
00:00:00.003	1.318681	1.344322	1.304762
00:00:00.003	1.303297	1.252747	1.295971
00:00:00.004	1.313553	1.242491	1.299634
00:00:00.004	1.314286	1.270330	1.304029
00:00:00.004	1.304762	1.305495	1.297436
00:00:00.005	1.311355	1.295238	1.294505
00:00:00.005	1.302564	1.235897	1.290110
00:00:00.005	1.294505	1.269597	1.284982
00:00:00.006	1.303297	1.338462	1.298168
00:00:00.006	1.322344	1.350183	1.301832
00:00:00.007	1.296703	1.328205	1.309158
00:00:00.007	1.288645	1.315751	1.300366
00:00:00.007	1.293773	1.299634	1.300366
00:00:00.008	1.299634	1.308425	1.315018
00:00:00.008	1.281319	1.296703	1.315751
00:00:00.009	1.309158	1.302564	1.314286
00:00:00.009	1.298168	1.266667	1.292308
00:00:00.009	1.310623	1.267399	1.298901
00:00:00.009	1.321612	1.300366	1.295238
00:00:00.010	1.309158	1.341392	1.292308
00:00:00.010	1.294505	1.363370	1.306227
00:00:00.010	1.304029	1.362637	1.294505
00:00:00.011	1.322344	1.336996	1.290842
00:00:00.011	1.356044	1.350183	1.297436
00:00:00.012	1.364835	1.365568	1.304762
00:00:00.012	1.335531	1.359707	1.307692
00:00:00.012	1.316484	1.254945	1.307692
00:00:00.013	1.282784	1.208791	1.306227
00:00:00.013	1.281319	1.197070	1.294505
00:00:00.013	1.274725	1.183150	1.308425
00:00:00.045	1.264469	1.237363	1.305495
00:00:00.046	1.281319	1.304762	1.298168
00:00:00.046	1.323810	1.304029	1.303297
00:00:00.047	1.348718	1.282051	1.314286
00:00:00.047	1.331136	1.276190	1.315751
00:00:00.047	1.299634	1.318681	1.315751
00:00:00.048	1.300366	1.328938	1.304029
00:00:00.048	1.300366	1.368498	1.290842
00:00:00.048	1.312821	1.368498	1.299634
00:00:00.050	1.292308	1.386081	1.295238
00:00:00.050	1.281319	1.334066	1.304762
00:00:00.050	1.308425	1.295238	1.304029
00:00:00.053	1.327473	1.279853	1.312821
00:00:00.053	1.350916	1.257875	1.315751
00:00:00.053	1.325275	1.273260	1.295238
00:00:00.053	1.323077	1.298901	1.309890
00:00:00.053	1.268864	1.259341	1.297436
00:00:00.053	1.283516	1.216850	1.295238
00:00:00.053	1.303297	1.260073	1.300366
00:00:00.053	1.305495	1.328938	1.304029
00:00:00.053	1.321612	1.327473	1.304029
00:00:00.053	1.314286	1.300366	1.312821
00:00:00.053	1.299634	1.315018	1.316484
00:00:00.054	1.306227	1.358974	1.304762
00:00:00.054	1.304762	1.357509	1.285714
00:00:00.054	1.306960	1.331868	1.297436
00:00:00.055	1.310623	1.317949	1.291575
00:00:00.055	1.300366	1.328205	1.298901
00:00:00.056	1.295971	1.325275	1.294505
00:00:00.056	1.351648	1.323077	1.305495
00:00:00.056	1.347253	1.300366	1.311355
00:00:00.057	1.336264	1.312088	1.318681
00:00:00.057	1.300366	1.293773	1.304762
00:00:00.057	1.298168	1.290110	1.313553
00:00:00.058	1.292308	1.343590	1.315018
00:00:00.058	1.287179	1.327473	1.309890
00:00:00.058	1.300366	1.315018	1.308425
00:00:00.059	1.289377	1.353114	1.305495
00:00:00.059	1.303297	1.361172	1.306227
00:00:00.059	1.325275	1.344322	1.302564
00:00:00.060	1.323810	1.331868	1.304762
00:00:00.060	1.328938	1.272527	1.296703
00:00:00.061	1.305495	1.226374	1.298168
00:00:00.061	1.309158	1.202198	1.298168
00:00:00.061	1.303297	1.205861	1.300366
00:00:00.062	1.284982	1.227839	1.290842
00:00:00.062	1.287179	1.258608	1.293773
00:00:00.062	1.285714	1.289377	1.301832
00:00:00.063	1.321612	1.312821	1.312821
00:00:00.063	1.336996	1.342857	1.316484
00:00:00.095	1.335531	1.356777	1.304762
00:00:00.096	1.331868	1.351648	1.316484
00:00:00.096	1.314286	1.300366	1.306227
00:00:00.096	1.294505	1.294505	1.310623
00:00:00.097	1.300366	1.297436	1.303297
00:00:00.097	1.309158	1.278388	1.306227
00:00:00.097	1.298168	1.291575	1.301099
00:00:00.098	1.292308	1.312821	1.303297
00:00:00.098	1.313553	1.315751	1.295238
00:00:00.098	1.299634	1.320147	1.291575
00:00:00.099	1.309890	1.333333	1.304762
00:00:00.099	1.305495	1.323810	1.290842
00:00:00.100	1.303297	1.317949	1.301832
00:00:00.100	1.306227	1.317216	1.309890
00:00:00.100	1.285714	1.292308	1.297436
00:00:00.101	1.303297	1.292308	1.307692
00:00:00.101	1.320147	1.300366	1.311355
00:00:00.101	1.323810	1.301832	1.309890
00:00:00.102	1.358974	1.334066	1.310623
00:00:00.102	1.374359	1.331136	1.312821
00:00:00.102	1.321612	1.310623	1.313553
00:00:00.103	1.294505	1.293773	1.307692
00:00:00.103	1.265201	1.284249	1.293040
00:00:00.103	1.261538	1.322344	1.302564
00:00:00.104	1.276190	1.307692	1.305495
00:00:00.104	1.307692	1.264469	1.299634
00:00:00.105	1.314286	1.263004	1.298168
00:00:00.105	1.299634	1.297436	1.300366
00:00:00.105	1.305495	1.330403	1.310623
00:00:00.106	1.298168	1.329670	1.303297
00:00:00.106	1.284249	1.306960	1.294505
00:00:00.106	1.296703	1.342125	1.302564
00:00:00.107	1.312821	1.380220	1.312088
00:00:00.107	1.315751	1.365568	1.313553
00:00:00.107	1.332601	1.395604	1.305495
00:00:00.108	1.336996	1.331868	1.306227
00:00:00.108	1.318681	1.268132	1.313553
00:00:00.108	1.276923	1.238828	1.311355
00:00:00.109	1.267399	1.256410	1.300366
00:00:00.109	1.274725	1.284982	1.288645
00:00:00.110	1.309158	1.301099	1.300366
00:00:00.110	1.338462	1.260806	1.297436
00:00:00.110	1.366300	1.235165	1.298901
00:00:00.111	1.350183	1.254945	1.293773
00:00:00.111	1.317216	1.268864	1.293773
00:00:00.111	1.306227	1.272527	1.303297
00:00:00.112	1.306960	1.243956	1.293040
00:00:00.112	1.300366	1.304762	1.311355
00:00:00.112	1.292308	1.336264	1.306960
00:00:00.113	1.298901	1.315751	1.314286
00:00:00.146	1.306960	1.298168	1.310623
00:00:00.146	1.312088	1.296703	1.298168
00:00:00.147	1.320879	1.331136	1.312821
00:00:00.147	1.326740	1.336264	1.309158
00:00:00.147	1.321612	1.341392	1.314286
00:00:00.149	1.312088	1.342125	1.310623
00:00:00.149	1.316484	1.339927	1.308425
00:00:00.149	1.318681	1.284982	1.278388
00:00:00.149	1.320879	1.260073	1.295238
00:00:00.149	1.318681	1.273993	1.298168
00:00:00.149	1.300366	1.271062	1.295238
00:00:00.149	1.291575	1.286447	1.300366
00:00:00.149	1.287179	1.285714	1.288645
00:00:00.154	1.301832	1.314286	1.306960
00:00:00.154	1.302564	1.359707	1.308425
00:00:00.154	1.293040	1.374359	1.317949
00:00:00.154	1.287912	1.361172	1.306960
00:00:00.154	1.310623	1.334066	1.317949
00:00:00.154	1.320879	1.295238	1.318681
00:00:00.154	1.328205	1.260073	1.314286
00:00:00.154	1.326740	1.296703	1.325275
00:00:00.154	1.323810	1.312088	1.310623
00:00:00.154	1.306960	1.276923	1.300366
00:00:00.154	1.290110	1.298168	1.298168
00:00:00.154	1.294505	1.315751	1.300366
00:00:00.154	1.290842	1.308425	1.290842
00:00:00.154	1.306227	1.308425	1.300366
00:00:00.155	1.315018	1.283516	1.300366
00:00:00.155	1.309158	1.293040	1.297436
00:00:00.155	1.308425	1.321612	1.300366
00:00:00.156	1.309890	1.304762	1.293040
00:00:00.156	1.315751	1.287912	1.295238
00:00:00.156	1.323077	1.282784	1.302564
00:00:00.157	1.331136	1.290110	1.305495
00:00:00.157	1.335531	1.308425	1.319414
00:00:00.157	1.320147	1.300366	1.311355
00:00:00.158	1.302564	1.307692	1.314286
00:00:00.158	1.292308	1.327473	1.304762
00:00:00.159	1.276923	1.325275	1.300366
00:00:00.159	1.282784	1.304029	1.300366
00:00:00.159	1.280586	1.265201	1.299634
00:00:00.160	1.259341	1.267399	1.304029
00:00:00.160	1.282051	1.305495	1.300366
00:00:00.160	1.330403	1.325275	1.297436
00:00:00.161	1.358242	1.321612	1.295238
00:00:00.161	1.378022	1.339927	1.307692
00:00:00.161	1.362637	1.334066	1.303297
00:00:00.162	1.331136	1.334066	1.312821
00:00:00.162	1.323077	1.305495	1.306960
00:00:00.162	1.311355	1.303297	1.311355
00:00:00.195	1.300366	1.306960	1.312088
00:00:00.195	1.296703	1.327473	1.298168
00:00:00.195	1.298901	1.334066	1.317949
00:00:00.196	1.284249	1.281319	1.316484
00:00:00.196	1.266667	1.292308	1.307692
00:00:00.196	1.287179	1.282784	1.307692
00:00:00.197	1.300366	1.269597	1.304762
00:00:00.197	1.312821	1.271795	1.304762
00:00:00.198	1.332601	1.304029	1.304762
00:00:00.198	1.316484	1.330403	1.295971
00:00:00.198	1.315018	1.347253	1.303297
00:00:00.199	1.312088	1.340659	1.306227
00:00:00.199	1.295971	1.347253	1.298901
00:00:00.199	1.293040	1.381685	1.290110
00:00:00.200	1.271062	1.328205	1.297436
00:00:00.200	1.300366	1.265201	1.307692
00:00:00.200	1.324542	1.260073	1.304762
00:00:00.201	1.353846	1.252747	1.312088
00:00:00.201	1.344322	1.240293	1.315018
00:00:00.201	1.323810	1.232967	1.320147
00:00:00.202	1.332601	1.341392	1.320147
00:00:00.202	1.331868	1.359707	1.296703
00:00:00.203	1.303297	1.363370	1.300366
00:00:00.203	1.294505	1.318681	1.307692
00:00:00.203	1.284982	1.247619	1.299634
00:00:00.204	1.297436	1.228571	1.300366
00:00:00.204	1.306960	1.213919	1.295238
00:00:00.204	1.334066	1.224908	1.298901
00:00:00.205	1.350183	1.275458	1.305495
00:00:00.205	1.306227	1.336264	1.297436
00:00:00.205	1.274725	1.342125	1.307692
00:00:00.206	1.260806	1.347253	1.300366
00:00:00.206	1.282051	1.341392	1.306227
00:00:00.206	1.309158	1.342125	1.313553
00:00:00.207	1.323810	1.337729	1.320147
00:00:00.207	1.323077	1.326007	1.307692
00:00:00.208	1.314286	1.311355	1.300366
00:00:00.208	1.313553	1.315018	1.304029
00:00:00.208	1.313553	1.304762	1.299634
00:00:00.209	1.316484	1.306960	1.298168
00:00:00.209	1.320147	1.315018	1.306227
00:00:00.209	1.309890	1.306960	1.299634
00:00:00.212	1.310623	1.338462	1.301832
00:00:00.212	1.312088	1.326007	1.305495
00:00:00.212	1.309890	1.312821	1.287179
00:00:00.212	1.310623	1.323810	1.304029
00:00:00.212	1.317949	1.295971	1.303297
00:00:00.212	1.300366	1.272527	1.296703
00:00:00.214	1.323810	1.323810	1.310623
00:00:00.214	1.322344	1.330403	1.299634
00:00:00.245	1.307692	1.307692	1.308425
00:00:00.245	1.309890	1.295971	1.304762
00:00:00.245	1.304762	1.261538	1.294505
00:00:00.245	1.297436	1.259341	1.302564
00:00:00.246	1.293040	1.271795	1.293773
00:00:00.246	1.305495	1.287912	1.312088
00:00:00.247	1.286447	1.292308	1.295238
00:00:00.251	1.305495	1.344322	1.308425
00:00:00.251	1.317949	1.357509	1.304029
00:00:00.251	1.304029	1.342857	1.306227
00:00:00.251	1.299634	1.331868	1.291575
00:00:00.251	1.313553	1.317949	1.306960
00:00:00.251	1.318681	1.298168	1.302564
00:00:00.251	1.318681	1.263736	1.298901
00:00:00.251	1.308425	1.232234	1.300366
00:00:00.251	1.309158	1.241758	1.295971
00:00:00.251	1.302564	1.260073	1.303297
00:00:00.251	1.309158	1.281319	1.304762
00:00:00.251	1.306960	1.308425	1.312821
00:00:00.251	1.304029	1.319414	1.310623
00:00:00.252	1.306227	1.339194	1.308425
00:00:00.252	1.319414	1.340659	1.302564
00:00:00.252	1.320879	1.321612	1.304762
00:00:00.253	1.304762	1.322344	1.300366
00:00:00.253	1.300366	1.304029	1.309158
00:00:00.253	1.297436	1.253480	1.297436
00:00:00.254	1.306227	1.217582	1.298901
00:00:00.254	1.302564	1.234432	1.290110
00:00:00.254	1.300366	1.319414	1.299634
00:00:00.255	1.318681	1.361172	1.304029
00:00:00.255	1.314286	1.358242	1.295971
00:00:00.255	1.309158	1.339927	1.302564
00:00:00.256	1.315018	1.371429	1.310623
00:00:00.256	1.315018	1.375092	1.309890
00:00:00.257	1.317216	1.401465	1.312088
00:00:00.257	1.314286	1.334066	1.312821
00:00:00.257	1.317949	1.261538	1.306960
00:00:00.258	1.316484	1.218315	1.312821
00:00:00.258	1.312088	1.189744	1.309890
00:00:00.258	1.304029	1.198535	1.295238
00:00:00.259	1.273993	1.302564	1.300366
00:00:00.259	1.282784	1.362637	1.305495
00:00:00.259	1.309158	1.346520	1.302564
00:00:00.260	1.348718	1.317216	1.298901
00:00:00.260	1.348718	1.345788	1.287179
00:00:00.260	1.342857	1.352381	1.305495
00:00:00.261	1.300366	1.308425	1.304762
00:00:00.261	1.274725	1.256410	1.300366
00:00:00.262	1.290842	1.273260	1.312821
00:00:00.262	1.300366	1.295238	1.301832
00:00:00.294	1.300366	1.301832	1.318681
00:00:00.294	1.306227	1.282051	1.307692
00:00:00.295	1.306227	1.270330	1.290110
00:00:00.295	1.319414	1.277656	1.312821
00:00:00.296	1.333333	1.304029	1.301832
00:00:00.296	1.361172	1.324542	1.309158
00:00:00.296	1.347985	1.339194	1.298168
00:00:00.297	1.318681	1.302564	1.291575
00:00:00.297	1.300366	1.309890	1.304029
00:00:00.297	1.290842	1.295238	1.304029
00:00:00.298	1.262271	1.255678	1.290842
00:00:00.298	1.244689	1.273260	1.292308
00:00:00.298	1.257875	1.315751	1.300366
00:00:00.299	1.264469	1.350916	1.290842
00:00:00.299	1.274725	1.335531	1.296703
00:00:00.299	1.279853	1.326007	1.301099
00:00:00.300	1.300366	1.349451	1.306227
00:00:00.300	1.348718	1.367033	1.311355
00:00:00.301	1.353114	1.341392	1.313553
00:00:00.302	1.348718	1.317949	1.315018
00:00:00.302	1.311355	1.272527	1.304762
00:00:00.302	1.298168	1.271062	1.302564
00:00:00.302	1.303297	1.297436	1.315018
00:00:00.302	1.313553	1.288645	1.311355
00:00:00.303	1.309158	1.292308	1.298168
00:00:00.303	1.322344	1.310623	1.303297
00:00:00.303	1.322344	1.276923	1.287179
00:00:00.304	1.326007	1.282051	1.298168
00:00:00.304	1.323077	1.303297	1.297436
00:00:00.304	1.328938	1.321612	1.304762
00:00:00.305	1.329670	1.327473	1.305495
00:00:00.305	1.319414	1.313553	1.304029
00:00:00.307	1.297436	1.304029	1.307692
00:00:00.307	1.306960	1.313553	1.306960
00:00:00.307	1.306960	1.303297	1.308425
00:00:00.307	1.293040	1.288645	1.312821
00:00:00.307	1.308425	1.291575	1.309158
00:00:00.307	1.295971	1.279121	1.300366
00:00:00.310	1.321612	1.283516	1.295971
00:00:00.310	1.337729	1.319414	1.303297
00:00:00.310	1.303297	1.328205	1.299634
00:00:00.310	1.301832	1.315018	1.307692
00:00:00.310	1.294505	1.289377	1.296703
00:00:00.311	1.295971	1.290110	1.290110
00:00:00.311	1.303297	1.308425	1.286447
00:00:00.311	1.285714	1.306227	1.285714
00:00:00.311	1.301832	1.315751	1.304029
00:00:00.311	1.316484	1.307692	1.301832
00:00:00.311	1.330403	1.304029	1.304762
00:00:00.315	1.320147	1.290110	1.302564
00:00:00.347	1.325275	1.294505	1.314286
00:00:00.347	1.320879	1.289377	1.320879
00:00:00.347	1.306227	1.269597	1.303297
00:00:00.347	1.293773	1.278388	1.302564
00:00:00.347	1.300366	1.295971	1.307692
00:00:00.347	1.293773	1.290842	1.293773
00:00:00.347	1.309890	1.309890	1.312088
00:00:00.347	1.309890	1.315018	1.301099
00:00:00.347	1.312088	1.325275	1.309158
00:00:00.347	1.313553	1.317216	1.290110
00:00:00.347	1.318681	1.300366	1.287912
00:00:00.348	1.325275	1.313553	1.297436
00:00:00.348	1.312088	1.313553	1.300366
00:00:00.349	1.301099	1.328938	1.303297
00:00:00.349	1.308425	1.328205	1.306227
00:00:00.349	1.295971	1.279121	1.288645
00:00:00.350	1.306960	1.279121	1.306227
00:00:00.350	1.304029	1.289377	1.306960
00:00:00.350	1.306227	1.331868	1.321612
00:00:00.351	1.313553	1.378755	1.315751
00:00:00.351	1.314286	1.466667	1.316484
00:00:00.351	1.310623	1.432234	1.316484
00:00:00.352	1.295238	1.336996	1.298168
00:00:00.352	1.300366	1.245421	1.303297
00:00:00.352	1.314286	1.205861	1.301832
00:00:00.353	1.317216	1.202198	1.300366
00:00:00.354	1.306227	1.247619	1.300366
00:00:00.354	1.303297	1.240293	1.290842
00:00:00.354	1.315018	1.257875	1.290842
00:00:00.354	1.315018	1.249817	1.298168
00:00:00.355	1.310623	1.199267	1.302564
00:00:00.355	1.298901	1.202198	1.301832
00:00:00.355	1.304029	1.268864	1.300366
00:00:00.356	1.299634	1.312088	1.306960
00:00:00.356	1.298901	1.367766	1.317949
00:00:00.356	1.305495	1.368498	1.318681
00:00:00.357	1.330403	1.354579	1.326007
00:00:00.357	1.358242	1.371429	1.326007
00:00:00.357	1.328205	1.327473	1.297436
00:00:00.358	1.303297	1.276190	1.295971
00:00:00.358	1.306227	1.263004	1.304762
00:00:00.359	1.293040	1.290842	1.297436
00:00:00.359	1.290842	1.323077	1.298168
00:00:00.359	1.300366	1.356044	1.301832
00:00:00.360	1.306227	1.358242	1.297436
00:00:00.360	1.305495	1.356777	1.287179
00:00:00.360	1.301832	1.336996	1.290110
00:00:00.361	1.306960	1.352381	1.305495
00:00:00.361	1.310623	1.354579	1.311355
00:00:00.361	1.312088	1.322344	1.304029
00:00:00.394	1.320879	1.306227	1.317949
00:00:00.394	1.288645	1.280586	1.304762
00:00:00.394	1.286447	1.284249	1.317949
00:00:00.395	1.298168	1.283516	1.307692
00:00:00.395	1.336264	1.292308	1.317216
00:00:00.395	1.364835	1.304029	1.317216
00:00:00.396	1.354579	1.285714	1.293773
00:00:00.396	1.334066	1.305495	1.306960
00:00:00.396	1.300366	1.304029	1.305495
00:00:00.397	1.271795	1.309890	1.309890
00:00:00.397	1.260806	1.306227	1.286447
00:00:00.397	1.280586	1.304762	1.278388
00:00:00.398	1.307692	1.317216	1.310623
00:00:00.398	1.320879	1.308425	1.311355
00:00:00.399	1.307692	1.297436	1.329670
00:00:00.399	1.308425	1.308425	1.309158
00:00:00.399	1.312088	1.303297	1.279121
00:00:00.400	1.313553	1.304762	1.309890
00:00:00.400	1.323810	1.296703	1.400000
00:00:00.400	1.319414	1.296703	1.388278
00:00:00.403	1.329670	1.298168	1.375824
00:00:00.403	1.320147	1.298168	1.315751
00:00:00.403	1.336264	1.310623	1.253480
00:00:00.403	1.328938	1.315018	1.347253
00:00:00.403	1.306960	1.309890	1.326007
00:00:00.404	1.293773	1.287179	1.126007
00:00:00.405	1.269597	1.271062	1.063736
00:00:00.405	1.276923	1.294505	1.219048
00:00:00.405	1.290110	1.318681	1.313553
00:00:00.405	1.291575	1.320147	1.327473
00:00:00.405	1.304029	1.317949	1.323810
00:00:00.405	1.306227	1.305495	1.318681
00:00:00.405	1.303297	1.300366	1.333333
00:00:00.406	1.309158	1.320147	1.345788
00:00:00.406	1.299634	1.306960	1.326007
00:00:00.406	1.320879	1.305495	1.331136
00:00:00.406	1.320147	1.299634	1.320879
00:00:00.411	1.304029	1.291575	1.317949
00:00:00.411	1.310623	1.305495	1.327473
00:00:00.411	1.310623	1.296703	1.317949
00:00:00.411	1.322344	1.295238	1.309158
00:00:00.411	1.321612	1.309158	1.304762
00:00:00.411	1.309890	1.299634	1.282784
00:00:00.411	1.306227	1.307692	1.298168
00:00:00.411	1.300366	1.312088	1.295238
00:00:00.411	1.309890	1.310623	1.289377
00:00:00.411	1.313553	1.319414	1.301832
00:00:00.411	1.320879	1.324542	1.308425
00:00:00.411	1.315018	1.318681	1.316484
00:00:00.411	1.315018	1.310623	1.315751
00:00:00.443	1.315018	1.300366	1.312821
00:00:00.444	1.312088	1.310623	1.304029
00:00:00.444	1.329670	1.326007	1.314286
00:00:00.444	1.335531	1.326740	1.312821
00:00:00.445	1.320147	1.324542	1.314286
00:00:00.445	1.301832	1.306227	1.309158
00:00:00.445	1.306960	1.312088	1.309890
00:00:00.446	1.301832	1.359707	1.311355
00:00:00.446	1.298168	1.370696	1.308425
00:00:00.446	1.304029	1.333333	1.305495
00:00:00.447	1.282051	1.295971	1.285714
00:00:00.447	1.279853	1.273260	1.293773
00:00:00.448	1.266667	1.243956	1.288645
00:00:00.448	1.265201	1.219048	1.290110
00:00:00.448	1.290842	1.158242	1.293040
00:00:00.449	1.331136	1.168498	1.295238
00:00:00.449	1.339927	1.224176	1.301099
00:00:00.449	1.340659	1.271795	1.311355
00:00:00.450	1.326740	1.304762	1.310623
00:00:00.450	1.315018	1.327473	1.307692
00:00:00.450	1.333333	1.339194	1.310623
00:00:00.451	1.315018	1.329670	1.301832
00:00:00.451	1.312088	1.330403	1.315018
00:00:00.452	1.309890	1.336996	1.309890
00:00:00.452	1.309158	1.331136	1.300366
00:00:00.452	1.312088	1.336996	1.312088
00:00:00.453	1.300366	1.323077	1.289377
00:00:00.453	1.298168	1.318681	1.289377
00:00:00.453	1.309890	1.336264	1.292308
00:00:00.454	1.301099	1.336264	1.287179
00:00:00.454	1.306227	1.340659	1.284982
00:00:00.454	1.309890	1.339194	1.291575
00:00:00.455	1.312821	1.312821	1.298168
00:00:00.455	1.324542	1.323810	1.311355
00:00:00.455	1.309158	1.301832	1.328938
00:00:00.456	1.304762	1.293773	1.323077
00:00:00.456	1.309158	1.299634	1.304762
00:00:00.457	1.310623	1.300366	1.300366
00:00:00.457	1.310623	1.300366	1.310623
00:00:00.457	1.307692	1.296703	1.309158
00:00:00.458	1.306227	1.305495	1.309158
00:00:00.458	1.312821	1.313553	1.304762
00:00:00.458	1.306960	1.315018	1.304762
00:00:00.459	1.296703	1.301099	1.289377
00:00:00.459	1.310623	1.312821	1.300366
00:00:00.459	1.314286	1.323077	1.305495
00:00:00.460	1.317216	1.320879	1.309890
00:00:00.460	1.326007	1.309158	1.317216
00:00:00.460	1.304029	1.298168	1.300366
00:00:00.461	1.317949	1.303297	1.306960
00:00:00.493	1.312088	1.304029	1.315751
00:00:00.493	1.315751	1.306960	1.323810
00:00:00.494	1.313553	1.298901	1.336264
00:00:00.494	1.305495	1.290110	1.218315
00:00:00.495	1.304762	1.294505	1.224908
00:00:00.495	1.308425	1.300366	1.294505
00:00:00.495	1.317949	1.301832	1.364103
00:00:00.496	1.328205	1.306227	1.483516
00:00:00.496	1.312088	1.289377	1.378755
00:00:00.496	1.305495	1.295238	1.241758
00:00:00.497	1.300366	1.303297	1.249817
00:00:00.497	1.297436	1.304029	1.309158
00:00:00.497	1.297436	1.317949	1.329670
00:00:00.499	1.282051	1.315751	1.295971
00:00:00.499	1.279853	1.322344	1.300366
00:00:00.499	1.305495	1.322344	1.281319
00:00:00.499	1.323810	1.305495	1.282051
00:00:00.499	1.317949	1.287179	1.276190
00:00:00.499	1.329670	1.284249	1.252015
00:00:00.501	1.337729	1.294505	1.273260
00:00:00.501	1.310623	1.295971	1.289377
00:00:00.503	1.303297	1.289377	1.276923
00:00:00.503	1.312088	1.300366	1.276923
00:00:00.503	1.313553	1.303297	1.315751
00:00:00.503	1.298901	1.297436	1.316484
00:00:00.503	1.290842	1.295238	1.312821
00:00:00.503	1.304762	1.297436	1.310623
00:00:00.503	1.311355	1.306227	1.315751
00:00:00.503	1.318681	1.313553	1.306960
00:00:00.503	1.312088	1.320147	1.310623
00:00:00.508	1.315018	1.317949	1.306227
00:00:00.508	1.312088	1.299634	1.300366
00:00:00.508	1.320147	1.304029	1.302564
00:00:00.508	1.326740	1.309158	1.305495
00:00:00.508	1.294505	1.309158	1.319414
00:00:00.508	1.272527	1.299634	1.323077
00:00:00.508	1.311355	1.301832	1.320879
00:00:00.508	1.320147	1.300366	1.304762
00:00:00.508	1.315018	1.304029	1.309158
00:00:00.508	1.307692	1.301832	1.312821
00:00:00.508	1.295971	1.297436	1.304029
00:00:00.508	1.304762	1.302564	1.294505
00:00:00.508	1.301832	1.314286	1.298168
00:00:00.508	1.289377	1.323810	1.309890
00:00:00.509	1.288645	1.315751	1.304762
00:00:00.509	1.293040	1.304762	1.289377
00:00:00.509	1.340659	1.311355	1.300366
00:00:00.511	1.372894	1.301099	1.291575
00:00:00.511	1.323077	1.307692	1.306227
00:00:00.511	1.322344	1.307692	1.309158
00:00:00.543	1.299634	1.293040	1.294505
00:00:00.543	1.306227	1.315018	1.308425
00:00:00.543	1.298901	1.314286	1.317216
00:00:00.544	1.303297	1.309890	1.320147
00:00:00.544	1.298901	1.290110	1.301832
00:00:00.545	1.304029	1.287912	1.287912
00:00:00.545	1.318681	1.293773	1.295238
00:00:00.545	1.309158	1.293773	1.301832
00:00:00.546	1.308425	1.298168	1.315751
00:00:00.546	1.336264	1.317949	1.336264
00:00:00.546	1.329670	1.323077	1.310623
00:00:00.547	1.312088	1.323810	1.298168
00:00:00.547	1.298168	1.320879	1.298168
00:00:00.547	1.302564	1.320879	1.303297
00:00:00.548	1.305495	1.319414	1.302564
00:00:00.548	1.306960	1.306227	1.293773
00:00:00.548	1.315018	1.311355	1.304762
00:00:00.549	1.313553	1.298901	1.306960
00:00:00.549	1.298901	1.276923	1.300366
00:00:00.550	1.313553	1.282784	1.312821
00:00:00.550	1.310623	1.285714	1.311355
00:00:00.550	1.300366	1.286447	1.312821
00:00:00.551	1.315751	1.298168	1.313553
00:00:00.551	1.304762	1.293040	1.299634
00:00:00.551	1.295238	1.290110	1.292308
00:00:00.552	1.316484	1.320147	1.298901
00:00:00.552	1.307692	1.326740	1.294505
00:00:00.552	1.306227	1.319414	1.287912
00:00:00.553	1.310623	1.315751	1.290842
00:00:00.553	1.309890	1.313553	1.295238
00:00:00.553	1.306960	1.315751	1.300366
00:00:00.554	1.296703	1.300366	1.287912
00:00:00.554	1.314286	1.316484	1.306227
00:00:00.555	1.315751	1.316484	1.308425
00:00:00.555	1.322344	1.315751	1.306960
00:00:00.555	1.338462	1.316484	1.321612
00:00:00.556	1.319414	1.301099	1.314286
00:00:00.556	1.318681	1.279121	1.312088
00:00:00.556	1.342857	1.282784	1.320879
00:00:00.557	1.323810	1.285714	1.314286
00:00:00.557	1.306227	1.293773	1.295971
00:00:00.557	1.308425	1.306960	1.300366
00:00:00.558	1.312088	1.319414	1.303297
00:00:00.558	1.301832	1.315751	1.295238
00:00:00.558	1.294505	1.316484	1.293040
00:00:00.559	1.293040	1.295238	1.284249
00:00:00.559	1.306227	1.295971	1.273993
00:00:00.560	1.303297	1.295238	1.282784
00:00:00.562	1.315751	1.320147	1.303297
00:00:00.562	1.310623	1.316484	1.296703
00:00:00.592	1.309890	1.317216	1.304762
00:00:00.593	1.300366	1.322344	1.306227
00:00:00.593	1.307692	1.324542	1.313553
00:00:00.594	1.319414	1.312821	1.318681
00:00:00.597	1.317949	1.297436	1.318681
00:00:00.597	1.308425	1.290842	1.311355
00:00:00.597	1.304029	1.275458	1.309158
00:00:00.597	1.311355	1.282784	1.323810
00:00:00.597	1.303297	1.287179	1.297436
00:00:00.597	1.310623	1.309890	1.298168
00:00:00.597	1.315751	1.320147	1.296703
00:00:00.597	1.300366	1.293773	1.289377
00:00:00.599	1.311355	1.323077	1.309890
00:00:00.599	1.297436	1.321612	1.295238
00:00:00.599	1.303297	1.328205	1.282784
00:00:00.599	1.315751	1.333333	1.301832
00:00:00.599	1.319414	1.322344	1.302564
00:00:00.599	1.317216	1.316484	1.306227
00:00:00.599	1.310623	1.308425	1.309890
00:00:00.599	1.306227	1.305495	1.304029
00:00:00.600	1.303297	1.288645	1.308425
00:00:00.600	1.308425	1.304029	1.319414
00:00:00.600	1.304029	1.288645	1.301832
00:00:00.604	1.315018	1.296703	1.306227
00:00:00.604	1.313553	1.296703	1.314286
00:00:00.604	1.317216	1.304029	1.303297
00:00:00.604	1.315751	1.301099	1.298901
00:00:00.604	1.306227	1.290842	1.294505
00:00:00.604	1.312821	1.289377	1.293773
00:00:00.604	1.309158	1.282784	1.292308
00:00:00.604	1.306960	1.261538	1.290110
00:00:00.604	1.302564	1.249817	1.292308
00:00:00.604	1.261538	1.247619	1.304029
00:00:00.604	1.297436	1.259341	1.311355
00:00:00.605	1.341392	1.317216	1.313553
00:00:00.605	1.329670	1.340659	1.313553
00:00:00.605	1.301832	1.345055	1.312088
00:00:00.606	1.306960	1.362637	1.314286
00:00:00.606	1.309890	1.385348	1.298168
00:00:00.606	1.303297	1.364835	1.300366
00:00:00.607	1.309890	1.336264	1.295238
00:00:00.607	1.304762	1.309890	1.290842
00:00:00.607	1.314286	1.315751	1.306960
00:00:00.608	1.304029	1.322344	1.290842
00:00:00.608	1.306227	1.345788	1.293773
00:00:00.609	1.315751	1.350916	1.297436
00:00:00.609	1.313553	1.300366	1.291575
00:00:00.609	1.313553	1.283516	1.300366
00:00:00.610	1.316484	1.290110	1.303297
00:00:00.610	1.307692	1.284982	1.309890
00:00:00.642	1.320879	1.301099	1.311355
00:00:00.643	1.303297	1.300366	1.311355
00:00:00.643	1.308425	1.269597	1.305495
00:00:00.643	1.305495	1.252747	1.309158
00:00:00.644	1.312088	1.273260	1.320879
00:00:00.644	1.315018	1.306227	1.312088
00:00:00.644	1.323810	1.304762	1.313553
00:00:00.645	1.311355	1.286447	1.309890
00:00:00.645	1.318681	1.286447	1.305495
00:00:00.645	1.315018	1.293040	1.301832
00:00:00.646	1.304762	1.310623	1.300366
00:00:00.647	1.282784	1.301099	1.290842
00:00:00.647	1.290110	1.309890	1.292308
00:00:00.647	1.298168	1.309158	1.300366
00:00:00.647	1.306227	1.308425	1.291575
00:00:00.648	1.313553	1.306227	1.304762
00:00:00.648	1.314286	1.295971	1.306227
00:00:00.648	1.320879	1.293773	1.305495
00:00:00.649	1.320879	1.301099	1.313553
00:00:00.649	1.315018	1.304762	1.320147
00:00:00.649	1.306227	1.300366	1.312821
00:00:00.650	1.312821	1.311355	1.320147
00:00:00.650	1.305495	1.319414	1.312821
00:00:00.650	1.297436	1.331136	1.314286
00:00:00.651	1.298168	1.330403	1.304029
00:00:00.651	1.276923	1.316484	1.296703
00:00:00.651	1.320147	1.296703	1.297436
00:00:00.652	1.333333	1.308425	1.300366
00:00:00.652	1.309158	1.351648	1.302564
00:00:00.653	1.317949	1.364835	1.300366
00:00:00.653	1.302564	1.331868	1.289377
00:00:00.654	1.311355	1.334066	1.303297
00:00:00.654	1.314286	1.308425	1.310623
00:00:00.654	1.313553	1.282784	1.306960
00:00:00.654	1.306227	1.297436	1.295971
00:00:00.655	1.313553	1.287179	1.305495
00:00:00.655	1.311355	1.216850	1.309158
00:00:00.655	1.312088	1.205861	1.302564
00:00:00.656	1.300366	1.208059	1.287179
00:00:00.656	1.306227	1.225641	1.299634
00:00:00.656	1.301832	1.241758	1.301832
00:00:00.657	1.298901	1.273260	1.304762
00:00:00.657	1.305495	1.315018	1.309890
00:00:00.662	1.301832	1.333333	1.288645
00:00:00.662	1.302564	1.334066	1.296703
00:00:00.662	1.312088	1.334066	1.300366
00:00:00.662	1.313553	1.327473	1.302564
00:00:00.662	1.312088	1.315018	1.304029
00:00:00.662	1.309890	1.306960	1.300366
00:00:00.662	1.317216	1.326740	1.309158
00:00:00.693	1.318681	1.342125	1.309158
00:00:00.693	1.303297	1.330403	1.310623
00:00:00.693	1.312088	1.331136	1.309158
00:00:00.693	1.315751	1.331136	1.310623
00:00:00.693	1.313553	1.334799	1.313553
00:00:00.695	1.312088	1.333333	1.311355
00:00:00.695	1.307692	1.300366	1.293773
00:00:00.695	1.313553	1.304029	1.308425
00:00:00.695	1.309158	1.306227	1.297436
00:00:00.695	1.291575	1.273260	1.297436
00:00:00.695	1.305495	1.281319	1.303297
00:00:00.700	1.290110	1.279121	1.293040
00:00:00.700	1.300366	1.291575	1.289377
00:00:00.700	1.311355	1.306960	1.298901
00:00:00.700	1.318681	1.309158	1.300366
00:00:00.700	1.323810	1.315018	1.300366
00:00:00.700	1.334799	1.344322	1.309158
00:00:00.700	1.312821	1.339927	1.315018
00:00:00.700	1.309890	1.314286	1.304762
00:00:00.700	1.297436	1.297436	1.308425
00:00:00.700	1.306227	1.287912	1.310623
00:00:00.700	1.310623	1.302564	1.315751
00:00:00.700	1.313553	1.312821	1.315751
00:00:00.700	1.313553	1.332601	1.312821
00:00:00.700	1.312821	1.319414	1.309890
00:00:00.702	1.316484	1.305495	1.311355
00:00:00.702	1.309158	1.304029	1.300366
00:00:00.702	1.297436	1.299634	1.296703
00:00:00.702	1.306960	1.293040	1.290842
00:00:00.702	1.311355	1.304762	1.286447
00:00:00.703	1.309158	1.276190	1.298901
00:00:00.703	1.309158	1.284982	1.295238
00:00:00.703	1.309890	1.302564	1.293040
00:00:00.704	1.327473	1.327473	1.307692
00:00:00.704	1.314286	1.322344	1.303297
00:00:00.704	1.290842	1.310623	1.306227
00:00:00.705	1.311355	1.291575	1.312088
00:00:00.705	1.312088	1.279853	1.315018
00:00:00.705	1.312088	1.278388	1.320879
00:00:00.706	1.312088	1.306227	1.312821
00:00:00.706	1.313553	1.299634	1.311355
00:00:00.707	1.294505	1.261538	1.299634
00:00:00.707	1.297436	1.301832	1.300366
00:00:00.707	1.296703	1.317949	1.290110
00:00:00.708	1.310623	1.336264	1.302564
00:00:00.708	1.307692	1.326740	1.289377
00:00:00.708	1.319414	1.330403	1.300366
00:00:00.709	1.309158	1.312088	1.295971
00:00:00.709	1.310623	1.299634	1.304029
00:00:00.709	1.315751	1.306960	1.298168
00:00:00.742	1.317949	1.305495	1.305495
00:00:00.742	1.318681	1.304029	1.309890
00:00:00.742	1.319414	1.308425	1.314286
00:00:00.743	1.311355	1.320147	1.317949
00:00:00.743	1.307692	1.306960	1.318681
00:00:00.743	1.288645	1.286447	1.306227
00:00:00.744	1.302564	1.304029	1.317216
00:00:00.744	1.307692	1.301832	1.304762
00:00:00.744	1.317216	1.301099	1.300366
00:00:00.745	1.306227	1.298901	1.290110
00:00:00.745	1.311355	1.312821	1.295971
00:00:00.746	1.309158	1.315751	1.300366
00:00:00.746	1.308425	1.310623	1.293773
