timestamp	ch1	ch2	ch3
00:00:00.000	1.320879	1.300366	1.299634
00:00:00.000	1.308425	1.292308	1.279121
00:00:00.000	1.304029	1.306227	1.273993
00:00:00.000	1.309890	1.317216	1.284982
00:00:00.001	1.295971	1.320879	1.298901
00:00:00.001	1.273993	1.301099	1.297436
00:00:00.002	1.288645	1.300366	1.309890
00:00:00.002	1.355311	1.301099	1.312088
00:00:00.002	1.332601	1.288645	1.300366
00:00:00.003	1.361905	1.296703	1.310623
00:00:00.003	1.328205	1.300366	1.311355
00:00:00.003	1.289377	1.289377	1.315751
00:00:00.004	1.298901	1.293040	1.323077
00:00:00.004	1.246154	1.287912	1.322344
00:00:00.004	1.268132	1.293773	1.320147
00:00:00.005	1.287179	1.293773	1.300366
00:00:00.005	1.303297	1.296703	1.315751
00:00:00.005	1.306227	1.311355	1.314286
00:00:00.006	1.299634	1.312088	1.300366
00:00:00.006	1.264469	1.323810	1.298901
00:00:00.007	1.324542	1.330403	1.299634
00:00:00.007	1.423443	1.334066	1.283516
00:00:00.007	1.405861	1.336264	1.284982
00:00:00.008	1.390476	1.320147	1.265201
00:00:00.008	1.380952	1.321612	1.273260
00:00:00.008	1.244689	1.306227	1.276923
00:00:00.009	1.176557	1.300366	1.300366
00:00:00.041	1.213187	1.283516	1.336264
00:00:00.041	1.268864	1.287179	1.339194
00:00:00.042	1.347253	1.293773	1.320879
00:00:00.042	1.329670	1.293040	1.318681
00:00:00.042	1.304029	1.287179	1.308425
00:00:00.043	1.302564	1.309158	1.312088
00:00:00.043	1.304762	1.312088	1.306227
00:00:00.043	1.295238	1.306227	1.300366
00:00:00.044	1.312088	1.317216	1.294505
00:00:00.044	1.311355	1.320879	1.295971
00:00:00.044	1.318681	1.318681	1.292308
00:00:00.045	1.323810	1.282784	1.287912
00:00:00.045	1.328938	1.274725	1.296703
00:00:00.047	1.332601	1.279121	1.312821
00:00:00.047	1.303297	1.287912	1.304029
00:00:00.047	1.315018	1.313553	1.315751
00:00:00.047	1.305495	1.328205	1.306960
00:00:00.047	1.308425	1.328938	1.319414
00:00:00.047	1.301832	1.319414	1.315018
00:00:00.049	1.298901	1.304762	1.302564
00:00:00.049	1.320147	1.331868	1.307692
00:00:00.049	1.309158	1.298901	1.334066
00:00:00.049	1.309890	1.284249	1.304762
00:00:00.051	1.317216	1.269597	1.304762
00:00:00.051	1.305495	1.252015	1.281319
00:00:00.051	1.311355	1.283516	1.288645
00:00:00.051	1.310623	1.312821	1.288645
00:00:00.051	1.317216	1.342125	1.300366
00:00:00.051	1.314286	1.328938	1.290110
00:00:00.054	1.298901	1.333333	1.284982
00:00:00.054	1.282051	1.314286	1.286447
00:00:00.054	1.303297	1.293773	1.300366
00:00:00.054	1.317216	1.282784	1.309890
00:00:00.054	1.313553	1.282051	1.309158
00:00:00.054	1.309890	1.297436	1.320879
00:00:00.054	1.310623	1.302564	1.314286
00:00:00.054	1.321612	1.320879	1.315751
00:00:00.054	1.318681	1.312088	1.316484
00:00:00.054	1.310623	1.306227	1.306960
00:00:00.055	1.302564	1.317216	1.304762
00:00:00.055	1.316484	1.327473	1.298901
00:00:00.056	1.315751	1.319414	1.290842
00:00:00.056	1.317949	1.353114	1.305495
00:00:00.056	1.300366	1.353114	1.295238
00:00:00.057	1.286447	1.331136	1.293773
00:00:00.057	1.292308	1.322344	1.301832
00:00:00.057	1.315018	1.311355	1.304762
00:00:00.058	1.306227	1.319414	1.309158
00:00:00.058	1.315018	1.334066	1.309890
00:00:00.058	1.315751	1.279853	1.298168
00:00:00.091	1.321612	1.235897	1.310623
00:00:00.091	1.313553	1.210256	1.309158
00:00:00.091	1.323077	1.206593	1.317216
00:00:00.092	1.297436	1.251282	1.316484
00:00:00.092	1.285714	1.272527	1.289377
00:00:00.092	1.279853	1.273993	1.294505
00:00:00.093	1.293040	1.317216	1.298901
00:00:00.093	1.304029	1.349451	1.305495
00:00:00.093	1.304762	1.361172	1.310623
00:00:00.094	1.312821	1.339927	1.302564
00:00:00.094	1.317949	1.295971	1.298901
00:00:00.095	1.330403	1.282784	1.300366
00:00:00.095	1.323810	1.312821	1.295971
00:00:00.095	1.326007	1.310623	1.302564
00:00:00.096	1.316484	1.306960	1.306227
00:00:00.096	1.309158	1.290110	1.299634
00:00:00.096	1.323077	1.306227	1.313553
00:00:00.097	1.315018	1.317216	1.308425
00:00:00.097	1.304762	1.315018	1.310623
00:00:00.097	1.316484	1.320879	1.316484
00:00:00.098	1.316484	1.321612	1.309158
00:00:00.098	1.313553	1.328938	1.302564
00:00:00.098	1.297436	1.336264	1.295238
00:00:00.099	1.286447	1.290842	1.290110
00:00:00.099	1.312821	1.282051	1.300366
00:00:00.100	1.300366	1.289377	1.298168
00:00:00.100	1.306227	1.323077	1.295971
00:00:00.100	1.319414	1.334066	1.287179
00:00:00.101	1.326007	1.344322	1.298901
00:00:00.101	1.326007	1.327473	1.303297
00:00:00.101	1.306960	1.290110	1.302564
00:00:00.102	1.290110	1.317216	1.304029
00:00:00.102	1.294505	1.320879	1.316484
00:00:00.102	1.294505	1.297436	1.312821
00:00:00.103	1.323077	1.277656	1.307692
00:00:00.103	1.336996	1.269597	1.306960
00:00:00.104	1.359707	1.289377	1.312088
00:00:00.104	1.336264	1.260806	1.302564
00:00:00.104	1.286447	1.269597	1.302564
00:00:00.105	1.263736	1.298168	1.300366
00:00:00.105	1.249817	1.311355	1.297436
00:00:00.105	1.281319	1.334066	1.305495
00:00:00.106	1.325275	1.332601	1.300366
00:00:00.106	1.331868	1.307692	1.298168
00:00:00.106	1.344322	1.303297	1.304029
00:00:00.107	1.344322	1.323077	1.303297
00:00:00.107	1.293040	1.333333	1.299634
00:00:00.107	1.275458	1.367033	1.308425
00:00:00.108	1.300366	1.328205	1.299634
00:00:00.108	1.362637	1.304762	1.302564
00:00:00.140	1.361905	1.261538	1.304762
00:00:00.141	1.252015	1.221978	1.299634
00:00:00.141	1.245421	1.236630	1.323810
00:00:00.141	1.243956	1.248352	1.313553
00:00:00.142	1.276923	1.265201	1.306960
00:00:00.142	1.339927	1.282784	1.302564
00:00:00.142	1.373626	1.320879	1.295238
00:00:00.143	1.363370	1.347253	1.297436
00:00:00.143	1.285714	1.370696	1.297436
00:00:00.144	1.250549	1.387546	1.298168
00:00:00.144	1.257143	1.385348	1.297436
00:00:00.144	1.306227	1.421978	1.294505
00:00:00.146	1.318681	1.383150	1.296703
00:00:00.146	1.336264	1.349451	1.304762
00:00:00.146	1.346520	1.309890	1.308425
00:00:00.146	1.352381	1.265934	1.311355
00:00:00.146	1.320879	1.270330	1.298901
00:00:00.146	1.298168	1.243956	1.312821
00:00:00.147	1.300366	1.221245	1.313553
00:00:00.147	1.293040	1.170696	1.316484
00:00:00.147	1.286447	1.197070	1.311355
00:00:00.148	1.299634	1.227839	1.300366
00:00:00.148	1.317216	1.242491	1.317216
00:00:00.151	1.315751	1.241758	1.300366
00:00:00.151	1.306227	1.303297	1.295971
00:00:00.151	1.314286	1.336996	1.286447
00:00:00.151	1.323077	1.363370	1.298168
00:00:00.151	1.315018	1.379487	1.290842
00:00:00.151	1.317216	1.370696	1.290842
00:00:00.151	1.323077	1.359707	1.307692
00:00:00.151	1.322344	1.391209	1.315018
00:00:00.151	1.317949	1.364835	1.305495
00:00:00.152	1.308425	1.343590	1.298168
00:00:00.153	1.321612	1.330403	1.298901
00:00:00.153	1.314286	1.291575	1.326740
00:00:00.153	1.296703	1.281319	1.320879
00:00:00.153	1.315018	1.251282	1.321612
00:00:00.154	1.307692	1.233700	1.302564
00:00:00.154	1.308425	1.252015	1.309890
00:00:00.154	1.312088	1.290110	1.304029
00:00:00.155	1.312821	1.315018	1.298901
00:00:00.155	1.315018	1.319414	1.295971
00:00:00.156	1.307692	1.324542	1.286447
00:00:00.156	1.313553	1.345788	1.300366
00:00:00.156	1.317949	1.368498	1.298168
00:00:00.156	1.295238	1.333333	1.296703
00:00:00.157	1.309890	1.314286	1.304029
00:00:00.157	1.301832	1.298901	1.306960
00:00:00.158	1.303297	1.276190	1.302564
00:00:00.158	1.304762	1.211722	1.305495
00:00:00.190	1.306960	1.216117	1.300366
00:00:00.190	1.317949	1.239560	1.312821
00:00:00.191	1.312088	1.242491	1.317216
00:00:00.191	1.310623	1.235165	1.306227
00:00:00.191	1.298901	1.251282	1.304762
00:00:00.192	1.309890	1.309890	1.308425
00:00:00.192	1.304762	1.328938	1.306227
00:00:00.193	1.316484	1.333333	1.305495
00:00:00.193	1.310623	1.342125	1.302564
00:00:00.193	1.315018	1.402930	1.312088
00:00:00.194	1.321612	1.400000	1.304029
00:00:00.194	1.295238	1.365568	1.295971
00:00:00.194	1.318681	1.336264	1.300366
00:00:00.195	1.317216	1.333333	1.298901
00:00:00.195	1.328938	1.395604	1.301832
00:00:00.195	1.307692	1.386813	1.306227
00:00:00.196	1.292308	1.302564	1.298168
00:00:00.196	1.290842	1.256410	1.303297
00:00:00.197	1.293040	1.271062	1.306960
00:00:00.197	1.317216	1.243956	1.304029
00:00:00.197	1.335531	1.224176	1.304029
00:00:00.198	1.329670	1.148718	1.297436
00:00:00.198	1.314286	1.136996	1.293773
00:00:00.198	1.298901	1.209524	1.294505
00:00:00.199	1.298168	1.282784	1.297436
00:00:00.199	1.312088	1.340659	1.294505
00:00:00.199	1.301832	1.339927	1.288645
00:00:00.200	1.310623	1.349451	1.295971
00:00:00.200	1.304762	1.344322	1.300366
00:00:00.200	1.303297	1.331136	1.300366
00:00:00.201	1.307692	1.323077	1.300366
00:00:00.201	1.303297	1.334066	1.308425
00:00:00.202	1.315018	1.334066	1.309890
00:00:00.202	1.284249	1.356044	1.315018
00:00:00.202	1.289377	1.359707	1.314286
00:00:00.203	1.323810	1.347253	1.316484
00:00:00.203	1.335531	1.298168	1.312821
00:00:00.203	1.356777	1.259341	1.316484
00:00:00.204	1.361905	1.257143	1.302564
00:00:00.204	1.339927	1.272527	1.309890
00:00:00.204	1.306960	1.290110	1.306227
00:00:00.205	1.279853	1.306227	1.303297
00:00:00.205	1.266667	1.353846	1.304029
00:00:00.205	1.277656	1.338462	1.294505
00:00:00.206	1.300366	1.312821	1.287179
00:00:00.206	1.321612	1.305495	1.294505
00:00:00.207	1.320147	1.288645	1.292308
00:00:00.207	1.315751	1.304762	1.298901
00:00:00.207	1.299634	1.305495	1.299634
00:00:00.210	1.278388	1.303297	1.313553
00:00:00.240	1.281319	1.306227	1.306960
00:00:00.240	1.301832	1.316484	1.313553
00:00:00.241	1.326007	1.320147	1.326740
00:00:00.242	1.336996	1.302564	1.315018
00:00:00.242	1.320879	1.275458	1.298901
00:00:00.242	1.315018	1.284249	1.306227
00:00:00.242	1.326007	1.297436	1.315751
00:00:00.242	1.319414	1.310623	1.306960
00:00:00.245	1.315018	1.323077	1.298168
00:00:00.245	1.306227	1.345788	1.289377
00:00:00.245	1.312088	1.380952	1.302564
00:00:00.245	1.306227	1.355311	1.299634
00:00:00.245	1.290110	1.312821	1.301832
00:00:00.245	1.309890	1.309158	1.300366
00:00:00.245	1.309158	1.301832	1.303297
00:00:00.245	1.300366	1.295238	1.309158
00:00:00.248	1.284982	1.265934	1.298901
00:00:00.248	1.301832	1.264469	1.304762
00:00:00.248	1.294505	1.258608	1.300366
00:00:00.248	1.276190	1.254945	1.290842
00:00:00.248	1.309158	1.264469	1.315018
00:00:00.248	1.315018	1.256410	1.303297
00:00:00.248	1.313553	1.307692	1.309158
00:00:00.248	1.320147	1.323077	1.309158
00:00:00.248	1.300366	1.315751	1.293773
00:00:00.249	1.320879	1.315018	1.300366
00:00:00.250	1.321612	1.323077	1.295971
00:00:00.250	1.321612	1.320147	1.302564
00:00:00.250	1.320879	1.310623	1.291575
00:00:00.250	1.317216	1.320147	1.295238
00:00:00.251	1.310623	1.336264	1.298901
00:00:00.251	1.322344	1.358242	1.309890
00:00:00.251	1.304762	1.329670	1.312088
00:00:00.252	1.309890	1.353846	1.303297
00:00:00.252	1.309890	1.358242	1.320147
00:00:00.252	1.316484	1.316484	1.313553
00:00:00.253	1.309890	1.265201	1.315018
00:00:00.253	1.315751	1.235897	1.312088
00:00:00.253	1.300366	1.218315	1.299634
00:00:00.254	1.317949	1.252747	1.312821
00:00:00.254	1.329670	1.271062	1.304029
00:00:00.254	1.315751	1.300366	1.300366
00:00:00.255	1.309890	1.315751	1.297436
00:00:00.255	1.287179	1.342125	1.298168
00:00:00.256	1.295238	1.358974	1.295971
00:00:00.256	1.307692	1.354579	1.293773
00:00:00.256	1.317216	1.321612	1.300366
00:00:00.257	1.320879	1.259341	1.292308
00:00:00.257	1.323810	1.251282	1.298901
00:00:00.257	1.313553	1.276190	1.312088
00:00:00.290	1.303297	1.302564	1.306960
00:00:00.290	1.297436	1.318681	1.321612
00:00:00.290	1.295238	1.309890	1.314286
00:00:00.291	1.294505	1.310623	1.309890
00:00:00.291	1.326007	1.346520	1.312821
00:00:00.291	1.324542	1.351648	1.306227
00:00:00.293	1.316484	1.337729	1.304762
00:00:00.293	1.306960	1.323810	1.311355
00:00:00.293	1.295971	1.282051	1.287912
00:00:00.293	1.296703	1.271062	1.297436
00:00:00.293	1.290110	1.268132	1.284982
00:00:00.293	1.300366	1.267399	1.275458
00:00:00.294	1.306960	1.301832	1.289377
00:00:00.294	1.317949	1.295238	1.285714
00:00:00.295	1.270330	1.291575	1.297436
00:00:00.295	1.280586	1.351648	1.300366
00:00:00.295	1.307692	1.356777	1.313553
00:00:00.296	1.323810	1.299634	1.305495
00:00:00.296	1.351648	1.279853	1.305495
00:00:00.296	1.353846	1.306960	1.300366
00:00:00.297	1.361905	1.351648	1.325275
00:00:00.297	1.320147	1.367766	1.308425
00:00:00.297	1.278388	1.333333	1.308425
00:00:00.298	1.252015	1.296703	1.304029
00:00:00.298	1.289377	1.262271	1.304029
00:00:00.298	1.333333	1.263004	1.304762
00:00:00.299	1.356044	1.267399	1.300366
00:00:00.299	1.343590	1.241758	1.293040
00:00:00.300	1.296703	1.205128	1.276923
00:00:00.300	1.300366	1.245421	1.286447
00:00:00.300	1.290110	1.284249	1.294505
00:00:00.301	1.282051	1.312821	1.297436
00:00:00.301	1.282051	1.326740	1.304029
00:00:00.301	1.288645	1.332601	1.316484
00:00:00.302	1.280586	1.323810	1.313553
00:00:00.302	1.295238	1.324542	1.308425
00:00:00.302	1.323077	1.327473	1.319414
00:00:00.304	1.350183	1.318681	1.318681
00:00:00.304	1.329670	1.320147	1.318681
00:00:00.304	1.323810	1.326740	1.305495
00:00:00.304	1.314286	1.310623	1.317216
00:00:00.304	1.301099	1.301099	1.305495
00:00:00.306	1.300366	1.296703	1.292308
00:00:00.306	1.300366	1.315751	1.289377
00:00:00.306	1.304029	1.345788	1.287179
00:00:00.309	1.298901	1.328205	1.287912
00:00:00.309	1.312088	1.326740	1.300366
00:00:00.309	1.317949	1.308425	1.300366
00:00:00.309	1.234432	1.312821	1.301832
00:00:00.309	1.235897	1.300366	1.314286
00:00:00.340	1.307692	1.297436	1.314286
00:00:00.340	1.386813	1.291575	1.312088
00:00:00.340	1.427106	1.308425	1.325275
00:00:00.340	1.424908	1.321612	1.319414
00:00:00.343	1.375092	1.336996	1.309890
00:00:00.343	1.289377	1.319414	1.295238
00:00:00.343	1.246886	1.301099	1.312088
00:00:00.343	1.265934	1.342857	1.299634
00:00:00.343	1.268132	1.355311	1.293773
00:00:00.343	1.274725	1.328938	1.300366
00:00:00.343	1.257143	1.302564	1.283516
00:00:00.343	1.273993	1.301832	1.297436
00:00:00.344	1.306960	1.293773	1.290110
00:00:00.345	1.340659	1.294505	1.293773
00:00:00.345	1.351648	1.272527	1.298901
00:00:00.345	1.349451	1.271795	1.296703
00:00:00.345	1.378755	1.308425	1.309158
00:00:00.345	1.334799	1.311355	1.310623
00:00:00.347	1.282784	1.317949	1.310623
00:00:00.347	1.257143	1.306960	1.309158
00:00:00.347	1.270330	1.291575	1.300366
00:00:00.347	1.286447	1.299634	1.306960
00:00:00.347	1.292308	1.302564	1.295238
00:00:00.348	1.338462	1.332601	1.299634
00:00:00.348	1.341392	1.334799	1.315018
00:00:00.348	1.335531	1.326740	1.317949
00:00:00.349	1.308425	1.308425	1.298168
00:00:00.349	1.241026	1.312088	1.297436
00:00:00.349	1.189744	1.310623	1.296703
00:00:00.350	1.276923	1.298168	1.281319
00:00:00.350	1.372894	1.285714	1.294505
00:00:00.350	1.461538	1.281319	1.291575
00:00:00.351	1.458608	1.296703	1.296703
00:00:00.351	1.400000	1.314286	1.313553
00:00:00.351	1.290110	1.290842	1.302564
00:00:00.352	1.224176	1.259341	1.315751
00:00:00.352	1.168498	1.233700	1.317949
00:00:00.353	1.218315	1.233700	1.323810
00:00:00.353	1.290842	1.232234	1.313553
00:00:00.353	1.323077	1.251282	1.304762
00:00:00.354	1.326740	1.299634	1.312821
00:00:00.354	1.333333	1.346520	1.304029
00:00:00.354	1.298168	1.372894	1.297436
00:00:00.355	1.301099	1.399267	1.302564
00:00:00.355	1.312088	1.386081	1.293040
00:00:00.355	1.320879	1.371429	1.291575
00:00:00.356	1.339927	1.317216	1.298901
00:00:00.356	1.315751	1.273260	1.284249
00:00:00.356	1.329670	1.290842	1.311355
00:00:00.357	1.323077	1.361172	1.309890
00:00:00.389	1.321612	1.401465	1.312821
00:00:00.389	1.323077	1.385348	1.319414
00:00:00.390	1.303297	1.301832	1.290842
00:00:00.390	1.285714	1.209524	1.303297
00:00:00.390	1.302564	1.193407	1.311355
00:00:00.391	1.312821	1.202930	1.314286
00:00:00.391	1.308425	1.229304	1.309890
00:00:00.392	1.319414	1.216850	1.301099
00:00:00.392	1.325275	1.271795	1.309158
00:00:00.392	1.306227	1.293040	1.302564
00:00:00.393	1.294505	1.295238	1.294505
00:00:00.393	1.316484	1.318681	1.295971
00:00:00.393	1.316484	1.302564	1.287179
00:00:00.394	1.310623	1.319414	1.284982
00:00:00.394	1.312088	1.350183	1.295238
00:00:00.394	1.297436	1.347253	1.304029
00:00:00.395	1.297436	1.352381	1.304029
00:00:00.395	1.319414	1.332601	1.312821
00:00:00.395	1.312088	1.309890	1.314286
00:00:00.396	1.325275	1.304029	1.323077
00:00:00.397	1.335531	1.314286	1.318681
00:00:00.397	1.310623	1.301099	1.327473
00:00:00.397	1.300366	1.298901	1.314286
00:00:00.397	1.306960	1.296703	1.314286
00:00:00.398	1.306960	1.278388	1.280586
00:00:00.398	1.325275	1.317949	1.300366
00:00:00.398	1.324542	1.295971	1.300366
00:00:00.399	1.287179	1.249817	1.295238
00:00:00.399	1.284249	1.252747	1.296703
00:00:00.399	1.314286	1.271062	1.295238
00:00:00.400	1.323077	1.298168	1.293040
00:00:00.400	1.326740	1.316484	1.303297
00:00:00.400	1.328938	1.331868	1.312821
00:00:00.402	1.323810	1.321612	1.319414
00:00:00.402	1.328205	1.315018	1.321612
00:00:00.402	1.311355	1.303297	1.315018
00:00:00.403	1.298168	1.300366	1.320147
00:00:00.403	1.273260	1.293773	1.306227
00:00:00.404	1.257143	1.296703	1.306960
00:00:00.404	1.265934	1.301832	1.304029
00:00:00.404	1.264469	1.296703	1.286447
00:00:00.404	1.300366	1.298901	1.295238
00:00:00.404	1.312088	1.301832	1.293040
00:00:00.404	1.354579	1.302564	1.304029
00:00:00.405	1.361905	1.314286	1.305495
00:00:00.408	1.384615	1.317949	1.300366
00:00:00.408	1.364103	1.353846	1.301832
00:00:00.408	1.315751	1.341392	1.296703
00:00:00.408	1.301832	1.312821	1.293040
00:00:00.408	1.317216	1.309890	1.303297
00:00:00.440	1.292308	1.291575	1.298168
00:00:00.440	1.309158	1.309890	1.304029
00:00:00.440	1.318681	1.293773	1.291575
00:00:00.440	1.300366	1.260806	1.280586
00:00:00.440	1.267399	1.298168	1.320879
00:00:00.441	1.299634	1.330403	1.323810
00:00:00.441	1.298901	1.359707	1.328205
00:00:00.441	1.307692	1.361172	1.319414
00:00:00.442	1.292308	1.366300	1.312088
00:00:00.442	1.312088	1.367033	1.315751
00:00:00.442	1.273260	1.372894	1.312821
00:00:00.443	1.288645	1.375092	1.306960
00:00:00.443	1.304762	1.367033	1.302564
00:00:00.443	1.309890	1.359707	1.305495
00:00:00.444	1.364835	1.345055	1.293773
00:00:00.444	1.383150	1.338462	1.302564
00:00:00.444	1.301832	1.333333	1.288645
00:00:00.445	1.227839	1.317216	1.302564
00:00:00.445	1.256410	1.327473	1.317949
00:00:00.446	1.331136	1.314286	1.299634
00:00:00.446	1.334799	1.305495	1.290110
00:00:00.446	1.350916	1.317949	1.323077
00:00:00.447	1.316484	1.313553	1.342857
00:00:00.447	1.235897	1.307692	1.328205
00:00:00.447	1.318681	1.301832	1.270330
00:00:00.448	1.323077	1.299634	1.222711
00:00:00.448	1.287912	1.315751	1.238828
00:00:00.449	1.295238	1.315751	1.253480
00:00:00.449	1.234432	1.315018	1.274725
00:00:00.449	1.265201	1.306227	1.293773
00:00:00.449	1.380952	1.310623	1.312821
00:00:00.450	1.493040	1.304762	1.315751
00:00:00.450	1.422711	1.290110	1.336264
00:00:00.451	1.309890	1.274725	1.394139
00:00:00.451	1.290842	1.258608	1.391941
00:00:00.451	1.259341	1.263004	1.342857
00:00:00.452	1.334066	1.265201	1.328205
00:00:00.452	1.307692	1.265201	1.326740
00:00:00.452	1.292308	1.260073	1.315751
00:00:00.453	1.293040	1.267399	1.303297
00:00:00.453	1.306960	1.288645	1.296703
00:00:00.453	1.282051	1.292308	1.290842
00:00:00.454	1.260073	1.296703	1.293040
00:00:00.454	1.213919	1.306227	1.295238
00:00:00.454	1.256410	1.295971	1.289377
00:00:00.455	1.288645	1.295238	1.291575
00:00:00.455	1.386081	1.279121	1.287179
00:00:00.456	1.338462	1.287912	1.298168
00:00:00.456	1.348718	1.282051	1.284982
00:00:00.456	1.496703	1.296703	1.296703
00:00:00.488	1.427839	1.291575	1.291575
00:00:00.489	1.338462	1.290842	1.299634
00:00:00.489	1.301832	1.295238	1.312821
00:00:00.490	1.204396	1.265201	1.300366
00:00:00.490	1.323077	1.254945	1.311355
00:00:00.490	1.271795	1.264469	1.309158
00:00:00.491	1.172894	1.298901	1.316484
00:00:00.491	1.246154	1.331136	1.320147
00:00:00.491	1.253480	1.355311	1.317949
00:00:00.492	1.288645	1.329670	1.290842
00:00:00.492	1.279853	1.316484	1.290110
00:00:00.493	1.312088	1.342857	1.291575
00:00:00.493	1.320879	1.367033	1.299634
00:00:00.493	1.308425	1.350183	1.289377
00:00:00.493	1.306960	1.301832	1.284249
00:00:00.494	1.312088	1.305495	1.295971
00:00:00.494	1.329670	1.316484	1.293040
00:00:00.495	1.345788	1.303297	1.320147
00:00:00.495	1.358974	1.280586	1.314286
00:00:00.495	1.378022	1.263004	1.300366
00:00:00.496	1.332601	1.263736	1.298901
00:00:00.496	1.299634	1.282051	1.315751
00:00:00.496	1.276923	1.308425	1.318681
00:00:00.498	1.227839	1.308425	1.306960
00:00:00.498	1.248352	1.270330	1.300366
00:00:00.498	1.300366	1.273260	1.309158
00:00:00.499	1.331868	1.289377	1.315751
00:00:00.499	1.301832	1.347253	1.312821
00:00:00.499	1.404396	1.380952	1.295971
00:00:00.501	1.452015	1.359707	1.284982
00:00:00.501	1.397070	1.326740	1.293040
00:00:00.501	1.287179	1.304029	1.291575
00:00:00.501	1.238095	1.283516	1.299634
00:00:00.501	1.202930	1.274725	1.308425
00:00:00.501	1.243956	1.271795	1.312821
00:00:00.501	1.254945	1.279853	1.301832
00:00:00.501	1.252015	1.298168	1.317216
00:00:00.504	1.268132	1.273260	1.319414
00:00:00.504	1.401465	1.268132	1.316484
00:00:00.504	1.358242	1.268864	1.318681
00:00:00.504	1.331136	1.272527	1.304029
00:00:00.504	1.367766	1.314286	1.303297
00:00:00.504	1.400733	1.358974	1.303297
00:00:00.504	1.317949	1.357509	1.272527
00:00:00.504	1.304029	1.347253	1.273993
00:00:00.505	1.289377	1.290110	1.279121
00:00:00.505	1.300366	1.265201	1.298901
00:00:00.505	1.310623	1.285714	1.295238
00:00:00.506	1.303297	1.315751	1.302564
00:00:00.506	1.330403	1.343590	1.313553
00:00:00.538	1.331136	1.362637	1.315018
00:00:00.540	1.321612	1.380952	1.326007
00:00:00.540	1.303297	1.346520	1.312821
00:00:00.540	1.265934	1.303297	1.308425
00:00:00.540	1.268864	1.265934	1.316484
00:00:00.540	1.253480	1.236630	1.295971
00:00:00.540	1.210989	1.279853	1.312821
00:00:00.541	1.232967	1.278388	1.304029
00:00:00.541	1.290842	1.247619	1.300366
00:00:00.541	1.352381	1.266667	1.296703
00:00:00.542	1.479853	1.336996	1.295971
00:00:00.542	1.449817	1.330403	1.300366
00:00:00.542	1.364103	1.297436	1.300366
00:00:00.543	1.287912	1.288645	1.289377
00:00:00.543	1.283516	1.311355	1.303297
00:00:00.544	1.284249	1.328205	1.311355
00:00:00.544	1.300366	1.356777	1.300366
00:00:00.544	1.303297	1.327473	1.304762
00:00:00.545	1.293773	1.285714	1.295971
00:00:00.545	1.284249	1.301832	1.300366
00:00:00.545	1.293773	1.342125	1.310623
00:00:00.546	1.310623	1.331868	1.320879
00:00:00.546	1.314286	1.302564	1.325275
00:00:00.546	1.305495	1.276190	1.305495
00:00:00.547	1.308425	1.301099	1.320879
00:00:00.547	1.306227	1.311355	1.315018
00:00:00.547	1.305495	1.303297	1.295971
00:00:00.548	1.304762	1.345788	1.299634
00:00:00.548	1.317216	1.376557	1.298168
00:00:00.549	1.313553	1.345055	1.286447
00:00:00.549	1.309158	1.321612	1.287179
00:00:00.549	1.313553	1.339194	1.293773
00:00:00.550	1.287912	1.311355	1.292308
00:00:00.550	1.304762	1.257875	1.291575
00:00:00.550	1.315018	1.208791	1.305495
00:00:00.551	1.305495	1.161905	1.298901
00:00:00.551	1.315018	1.180952	1.313553
00:00:00.551	1.308425	1.225641	1.306960
00:00:00.552	1.308425	1.242491	1.311355
00:00:00.552	1.300366	1.247619	1.307692
00:00:00.552	1.306227	1.306227	1.318681
00:00:00.554	1.318681	1.356044	1.314286
00:00:00.554	1.316484	1.365568	1.312821
00:00:00.554	1.314286	1.358242	1.305495
00:00:00.554	1.314286	1.404396	1.303297
00:00:00.554	1.303297	1.410256	1.286447
00:00:00.555	1.312088	1.391209	1.284982
00:00:00.555	1.309890	1.397070	1.287912
00:00:00.555	1.302564	1.354579	1.276923
00:00:00.556	1.313553	1.353846	1.287912
00:00:00.588	1.318681	1.323077	1.295971
00:00:00.588	1.309158	1.264469	1.301832
00:00:00.589	1.304762	1.183150	1.306227
00:00:00.589	1.309158	1.147253	1.312088
00:00:00.589	1.304762	1.172161	1.317216
00:00:00.590	1.311355	1.219048	1.300366
00:00:00.590	1.310623	1.263736	1.299634
00:00:00.590	1.304762	1.284982	1.310623
00:00:00.591	1.305495	1.328205	1.312088
00:00:00.591	1.302564	1.359707	1.315018
00:00:00.591	1.317949	1.364835	1.323077
00:00:00.592	1.315751	1.350183	1.300366
00:00:00.592	1.313553	1.304029	1.293773
00:00:00.594	1.312821	1.267399	1.292308
00:00:00.594	1.309890	1.260806	1.287912
00:00:00.594	1.306960	1.278388	1.284982
00:00:00.596	1.296703	1.284982	1.282784
00:00:00.596	1.312821	1.307692	1.284249
00:00:00.596	1.316484	1.353114	1.312088
00:00:00.596	1.314286	1.349451	1.316484
00:00:00.596	1.310623	1.313553	1.314286
00:00:00.596	1.301832	1.302564	1.316484
00:00:00.596	1.312088	1.289377	1.312088
00:00:00.596	1.297436	1.281319	1.309158
00:00:00.596	1.298901	1.271062	1.306227
00:00:00.597	1.309890	1.294505	1.308425
00:00:00.597	1.306960	1.315018	1.287912
00:00:00.600	1.315751	1.306960	1.300366
00:00:00.600	1.320147	1.295238	1.293040
00:00:00.600	1.317949	1.345055	1.295238
00:00:00.600	1.320147	1.383150	1.298901
00:00:00.600	1.303297	1.368498	1.301832
00:00:00.600	1.310623	1.386813	1.295238
00:00:00.600	1.304762	1.326007	1.306960
00:00:00.600	1.307692	1.248352	1.304029
00:00:00.600	1.308425	1.268864	1.304762
00:00:00.601	1.306227	1.298168	1.308425
00:00:00.601	1.316484	1.299634	1.317949
00:00:00.601	1.315751	1.296703	1.312088
00:00:00.602	1.312088	1.305495	1.320147
00:00:00.602	1.313553	1.305495	1.320147
00:00:00.603	1.297436	1.285714	1.305495
00:00:00.603	1.310623	1.284249	1.306227
00:00:00.603	1.312088	1.318681	1.297436
00:00:00.604	1.317949	1.338462	1.305495
00:00:00.604	1.312821	1.304029	1.298168
00:00:00.604	1.317949	1.305495	1.287912
00:00:00.605	1.309890	1.323810	1.300366
00:00:00.606	1.316484	1.332601	1.300366
00:00:00.606	1.317216	1.328938	1.298168
00:00:00.638	1.310623	1.317949	1.312821
00:00:00.638	1.311355	1.310623	1.311355
00:00:00.638	1.306960	1.357509	1.312088
00:00:00.639	1.307692	1.334799	1.318681
00:00:00.639	1.321612	1.282784	1.320147
00:00:00.639	1.310623	1.263736	1.326740
00:00:00.640	1.304029	1.253480	1.306227
00:00:00.640	1.309158	1.261538	1.307692
00:00:00.640	1.316484	1.296703	1.312088
00:00:00.641	1.313553	1.300366	1.295971
00:00:00.641	1.311355	1.286447	1.285714
00:00:00.642	1.309158	1.306227	1.286447
00:00:00.642	1.306960	1.382418	1.287912
00:00:00.642	1.310623	1.402198	1.304762
00:00:00.643	1.312088	1.351648	1.300366
00:00:00.643	1.320879	1.323077	1.310623
00:00:00.643	1.315751	1.304762	1.317216
00:00:00.644	1.312088	1.291575	1.306227
00:00:00.644	1.307692	1.271062	1.296703
00:00:00.644	1.310623	1.225641	1.302564
00:00:00.645	1.295238	1.196337	1.301832
00:00:00.645	1.298168	1.249817	1.300366
00:00:00.645	1.306960	1.292308	1.311355
00:00:00.646	1.305495	1.287179	1.320147
00:00:00.646	1.309158	1.279121	1.304029
00:00:00.647	1.287912	1.274725	1.295971
00:00:00.647	1.309890	1.325275	1.310623
00:00:00.647	1.315751	1.353114	1.302564
00:00:00.648	1.320879	1.359707	1.293773
00:00:00.648	1.314286	1.358974	1.291575
00:00:00.648	1.314286	1.334799	1.297436
00:00:00.649	1.313553	1.327473	1.300366
00:00:00.649	1.316484	1.323810	1.304029
00:00:00.649	1.317216	1.323810	1.308425
00:00:00.650	1.309890	1.329670	1.304029
00:00:00.650	1.314286	1.366300	1.316484
00:00:00.650	1.310623	1.342125	1.305495
00:00:00.651	1.306960	1.271062	1.311355
00:00:00.651	1.312088	1.249817	1.317216
00:00:00.652	1.304029	1.240293	1.317216
00:00:00.652	1.305495	1.280586	1.316484
00:00:00.652	1.312088	1.282784	1.309890
00:00:00.653	1.312088	1.262271	1.290842
00:00:00.653	1.308425	1.256410	1.289377
00:00:00.653	1.301099	1.270330	1.282784
00:00:00.654	1.308425	1.292308	1.283516
00:00:00.655	1.312088	1.323810	1.287912
00:00:00.655	1.312088	1.326740	1.276923
00:00:00.655	1.315018	1.320147	1.294505
00:00:00.655	1.315018	1.311355	1.305495
00:00:00.687	1.312088	1.337729	1.305495
00:00:00.688	1.315018	1.327473	1.309158
00:00:00.688	1.307692	1.295971	1.301832
00:00:00.688	1.307692	1.297436	1.315018
00:00:00.691	1.308425	1.301832	1.319414
00:00:00.691	1.309890	1.309890	1.320879
00:00:00.691	1.303297	1.315018	1.320879
00:00:00.691	1.303297	1.311355	1.307692
00:00:00.691	1.315018	1.305495	1.310623
00:00:00.691	1.315751	1.304029	1.306227
00:00:00.691	1.312821	1.309158	1.299634
00:00:00.691	1.317949	1.320879	1.300366
00:00:00.695	1.327473	1.323077	1.294505
00:00:00.695	1.309890	1.328938	1.297436
00:00:00.695	1.304029	1.322344	1.293040
00:00:00.695	1.306960	1.320879	1.295971
00:00:00.695	1.318681	1.331868	1.306227
00:00:00.695	1.309890	1.316484	1.306227
00:00:00.695	1.312821	1.298901	1.307692
00:00:00.695	1.312821	1.298168	1.315751
00:00:00.695	1.310623	1.301099	1.316484
00:00:00.695	1.309158	1.304762	1.318681
00:00:00.695	1.303297	1.301099	1.309890
00:00:00.697	1.303297	1.292308	1.303297
00:00:00.697	1.316484	1.294505	1.310623
00:00:00.697	1.314286	1.301099	1.303297
00:00:00.697	1.300366	1.329670	1.293040
00:00:00.697	1.320147	1.346520	1.298901
00:00:00.697	1.315018	1.318681	1.298168
00:00:00.698	1.312821	1.325275	1.300366
00:00:00.698	1.316484	1.314286	1.297436
00:00:00.698	1.301832	1.268132	1.284982
00:00:00.699	1.315018	1.288645	1.299634
00:00:00.699	1.315018	1.284249	1.296703
00:00:00.700	1.308425	1.282051	1.297436
00:00:00.700	1.306227	1.290110	1.304762
00:00:00.700	1.303297	1.264469	1.297436
00:00:00.701	1.300366	1.246154	1.315018
00:00:00.701	1.311355	1.257143	1.315751
00:00:00.701	1.309158	1.270330	1.308425
00:00:00.702	1.316484	1.323810	1.326007
00:00:00.702	1.316484	1.427839	1.318681
00:00:00.702	1.300366	1.445421	1.304029
00:00:00.703	1.303297	1.424176	1.306960
00:00:00.703	1.302564	1.301099	1.296703
00:00:00.703	1.302564	1.259341	1.294505
00:00:00.704	1.310623	1.251282	1.283516
00:00:00.704	1.309158	1.202930	1.287912
00:00:00.705	1.312821	1.176557	1.287179
00:00:00.705	1.317216	1.245421	1.294505
00:00:00.737	1.301832	1.274725	1.290110
00:00:00.737	1.306227	1.320147	1.309158
00:00:00.738	1.306227	1.252747	1.298168
00:00:00.738	1.304762	1.246886	1.306227
00:00:00.738	1.306227	1.276923	1.309158
00:00:00.739	1.311355	1.312821	1.321612
00:00:00.739	1.320147	1.316484	1.326740
00:00:00.740	1.315751	1.354579	1.318681
00:00:00.740	1.305495	1.391941	1.312088
00:00:00.740	1.307692	1.416117	1.317949
00:00:00.741	1.303297	1.353846	1.306960
00:00:00.742	1.308425	1.298901	1.300366
00:00:00.742	1.304762	1.297436	1.291575
00:00:00.742	1.309890	1.326740	1.290842
00:00:00.742	1.309158	1.339927	1.295971
00:00:00.742	1.312088	1.310623	1.290110
00:00:00.743	1.311355	1.274725	1.295238
00:00:00.743	1.316484	1.279121	1.300366
00:00:00.744	1.295238	1.275458	1.294505
00:00:00.744	1.306227	1.270330	1.304762
00:00:00.744	1.308425	1.265934	1.302564
00:00:00.745	1.312088	1.290110	1.312821
00:00:00.745	1.309890	1.320147	1.307692
00:00:00.745	1.300366	1.275458	1.303297
00:00:00.746	1.309158	1.280586	1.308425
00:00:00.746	1.302564	1.268132	1.300366
00:00:00.746	1.291575	1.271795	1.302564
00:00:00.747	1.306960	1.312821	1.309158
00:00:00.747	1.304029	1.318681	1.303297
00:00:00.747	1.323810	1.321612	1.299634
00:00:00.748	1.317949	1.320147	1.287179
00:00:00.748	1.322344	1.318681	1.298168
00:00:00.749	1.309158	1.301099	1.288645
00:00:00.749	1.313553	1.321612	1.302564
00:00:00.749	1.312088	1.332601	1.299634
00:00:00.750	1.313553	1.320879	1.312088
00:00:00.750	1.309890	1.304762	1.300366
00:00:00.750	1.306960	1.305495	1.308425
00:00:00.752	1.314286	1.319414	1.315751
00:00:00.752	1.304762	1.335531	1.315751
00:00:00.752	1.317216	1.334799	1.323810
00:00:00.752	1.309158	1.287179	1.317949
00:00:00.752	1.300366	1.244689	1.299634
00:00:00.752	1.306227	1.294505	1.299634
00:00:00.754	1.313553	1.344322	1.302564
00:00:00.754	1.307692	1.361172	1.296703
00:00:00.755	1.320147	1.350916	1.298168
00:00:00.755	1.309158	1.346520	1.299634
00:00:00.755	1.315751	1.389011	1.295238
00:00:00.757	1.310623	1.367033	1.291575
00:00:00.788	1.302564	1.304762	1.296703
00:00:00.788	1.312088	1.284982	1.303297
00:00:00.788	1.310623	1.245421	1.304762
00:00:00.788	1.306960	1.218315	1.313553
00:00:00.788	1.301832	1.217582	1.314286
00:00:00.791	1.297436	1.216850	1.315018
00:00:00.791	1.304762	1.245421	1.312088
00:00:00.791	1.293040	1.248352	1.294505
00:00:00.791	1.307692	1.284249	1.308425
00:00:00.791	1.315751	1.309158	1.312088
00:00:00.791	1.310623	1.326740	1.306227
00:00:00.791	1.323077	1.352381	1.306960
00:00:00.791	1.319414	1.347253	1.290842
00:00:00.791	1.319414	1.356044	1.303297
00:00:00.793	1.314286	1.356777	1.303297
00:00:00.793	1.296703	1.350183	1.299634
00:00:00.793	1.304762	1.353114	1.303297
00:00:00.793	1.317216	1.346520	1.303297
00:00:00.794	1.312088	1.320147	1.306227
00:00:00.794	1.320879	1.309890	1.303297
00:00:00.794	1.310623	1.277656	1.298168
00:00:00.794	1.316484	1.271795	1.308425
00:00:00.795	1.317949	1.279853	1.311355
