timestamp	ch1	ch2	ch3
00:00:00.000	1.310623	1.306227	1.308425
00:00:00.000	1.315018	1.309890	1.305495
00:00:00.000	1.302564	1.288645	1.293773
00:00:00.032	1.307692	1.298168	1.296703
00:00:00.032	1.309158	1.305495	1.306227
00:00:00.035	1.309890	1.313553	1.306960
00:00:00.035	1.305495	1.320879	1.306960
00:00:00.035	1.306960	1.331136	1.317216
00:00:00.035	1.294505	1.337729	1.302564
00:00:00.035	1.309158	1.340659	1.309158
00:00:00.035	1.309158	1.325275	1.309158
00:00:00.039	1.304029	1.279853	1.305495
00:00:00.039	1.317949	1.266667	1.305495
00:00:00.039	1.312088	1.267399	1.297436
00:00:00.039	1.320879	1.278388	1.304762
00:00:00.039	1.322344	1.300366	1.310623
00:00:00.039	1.312088	1.307692	1.297436
00:00:00.039	1.308425	1.311355	1.296703
00:00:00.039	1.312821	1.303297	1.300366
00:00:00.039	1.312821	1.315751	1.307692
00:00:00.039	1.304029	1.306227	1.306960
00:00:00.039	1.296703	1.304762	1.294505
00:00:00.039	1.305495	1.325275	1.306227
00:00:00.039	1.302564	1.320879	1.308425
00:00:00.039	1.300366	1.308425	1.302564
00:00:00.040	1.297436	1.301832	1.299634
00:00:00.040	1.313553	1.317949	1.303297
00:00:00.040	1.314286	1.310623	1.300366
00:00:00.040	1.314286	1.308425	1.300366
00:00:00.040	1.312088	1.300366	1.292308
00:00:00.041	1.323077	1.314286	1.310623
00:00:00.041	1.325275	1.310623	1.315751
00:00:00.041	1.314286	1.298901	1.306960
00:00:00.042	1.320147	1.298168	1.305495
00:00:00.042	1.313553	1.309890	1.306227
00:00:00.042	1.314286	1.304762	1.305495
00:00:00.043	1.305495	1.304762	1.302564
00:00:00.043	1.302564	1.301832	1.300366
00:00:00.043	1.300366	1.298901	1.304762
00:00:00.044	1.297436	1.299634	1.303297
00:00:00.044	1.301832	1.310623	1.300366
00:00:00.044	1.304762	1.315018	1.290842
00:00:00.045	1.308425	1.323077	1.303297
00:00:00.045	1.309890	1.312821	1.304029
00:00:00.046	1.311355	1.306960	1.305495
00:00:00.046	1.323810	1.304029	1.309158
00:00:00.046	1.318681	1.299634	1.309158
00:00:00.047	1.312821	1.289377	1.311355
00:00:00.047	1.323810	1.293040	1.312088
00:00:00.047	1.326007	1.312088	1.307692
00:00:00.048	1.320879	1.310623	1.308425
00:00:00.048	1.319414	1.298901	1.304029
00:00:00.048	1.317949	1.303297	1.308425
00:00:00.081	1.306227	1.303297	1.304029
00:00:00.081	1.297436	1.304029	1.302564
00:00:00.081	1.290842	1.307692	1.305495
00:00:00.082	1.295238	1.315751	1.305495
00:00:00.082	1.294505	1.315018	1.291575
00:00:00.082	1.300366	1.320879	1.295238
00:00:00.083	1.303297	1.321612	1.306960
00:00:00.083	1.304762	1.313553	1.303297
00:00:00.083	1.312088	1.310623	1.304029
00:00:00.084	1.322344	1.310623	1.304029
00:00:00.084	1.327473	1.307692	1.307692
00:00:00.085	1.322344	1.290110	1.300366
00:00:00.085	1.310623	1.280586	1.306960
00:00:00.085	1.321612	1.286447	1.303297
00:00:00.086	1.321612	1.287179	1.300366
00:00:00.087	1.318681	1.304762	1.315018
00:00:00.087	1.309890	1.317949	1.312821
00:00:00.087	1.306227	1.317949	1.306960
00:00:00.087	1.306227	1.323810	1.308425
00:00:00.087	1.290842	1.308425	1.295238
00:00:00.088	1.303297	1.325275	1.309158
00:00:00.088	1.301832	1.322344	1.300366
00:00:00.088	1.302564	1.314286	1.302564
00:00:00.089	1.306227	1.300366	1.305495
00:00:00.089	1.316484	1.300366	1.310623
00:00:00.090	1.320879	1.306227	1.312821
00:00:00.090	1.307692	1.297436	1.309890
00:00:00.090	1.322344	1.290842	1.306960
00:00:00.091	1.318681	1.282051	1.298901
00:00:00.091	1.321612	1.298168	1.305495
00:00:00.091	1.326007	1.315018	1.303297
00:00:00.092	1.320879	1.317949	1.307692
00:00:00.092	1.315018	1.324542	1.306227
00:00:00.092	1.306960	1.326007	1.302564
00:00:00.093	1.297436	1.313553	1.302564
00:00:00.093	1.300366	1.317949	1.299634
00:00:00.093	1.294505	1.306227	1.286447
00:00:00.095	1.299634	1.302564	1.303297
00:00:00.095	1.306227	1.300366	1.308425
00:00:00.095	1.295971	1.298168	1.298168
00:00:00.096	1.311355	1.313553	1.308425
00:00:00.096	1.309890	1.309158	1.306227
00:00:00.096	1.306960	1.309158	1.308425
00:00:00.096	1.317949	1.298901	1.304029
00:00:00.096	1.315018	1.281319	1.302564
00:00:00.098	1.326740	1.294505	1.312821
00:00:00.098	1.320147	1.300366	1.303297
00:00:00.098	1.304029	1.289377	1.296703
00:00:00.098	1.322344	1.311355	1.304762
00:00:00.098	1.310623	1.298168	1.305495
00:00:00.134	1.306227	1.302564	1.309158
00:00:00.134	1.298901	1.304762	1.300366
00:00:00.134	1.300366	1.312088	1.302564
00:00:00.134	1.300366	1.323810	1.302564
00:00:00.134	1.296703	1.318681	1.300366
00:00:00.134	1.299634	1.325275	1.303297
00:00:00.134	1.309158	1.321612	1.306960
00:00:00.134	1.309158	1.315751	1.299634
00:00:00.134	1.309158	1.304029	1.304762
00:00:00.134	1.312088	1.300366	1.306227
00:00:00.134	1.317949	1.294505	1.307692
00:00:00.134	1.323810	1.299634	1.306227
00:00:00.135	1.323810	1.293040	1.296703
00:00:00.135	1.324542	1.306227	1.308425
00:00:00.135	1.323810	1.301832	1.298901
00:00:00.136	1.315018	1.293773	1.299634
00:00:00.136	1.315751	1.293773	1.309890
00:00:00.136	1.307692	1.300366	1.300366
00:00:00.137	1.308425	1.306227	1.304029
00:00:00.137	1.305495	1.316484	1.308425
00:00:00.137	1.298901	1.315018	1.292308
00:00:00.138	1.300366	1.328205	1.306960
00:00:00.139	1.288645	1.314286	1.308425
00:00:00.139	1.307692	1.318681	1.302564
00:00:00.139	1.308425	1.320879	1.306227
00:00:00.139	1.312821	1.316484	1.301832
00:00:00.140	1.304029	1.299634	1.303297
00:00:00.140	1.323077	1.295238	1.303297
00:00:00.140	1.317949	1.282051	1.299634
00:00:00.141	1.319414	1.276923	1.303297
00:00:00.141	1.311355	1.268132	1.295238
00:00:00.141	1.323810	1.295238	1.305495
00:00:00.142	1.320879	1.315751	1.309890
00:00:00.142	1.318681	1.318681	1.308425
00:00:00.142	1.298168	1.310623	1.304029
00:00:00.143	1.297436	1.304029	1.300366
00:00:00.143	1.302564	1.314286	1.300366
00:00:00.144	1.295238	1.314286	1.299634
00:00:00.144	1.301832	1.312821	1.303297
00:00:00.144	1.303297	1.312821	1.302564
00:00:00.145	1.300366	1.319414	1.302564
00:00:00.145	1.309890	1.318681	1.300366
00:00:00.145	1.304029	1.295971	1.300366
00:00:00.146	1.327473	1.298901	1.314286
00:00:00.146	1.320147	1.284249	1.295971
00:00:00.146	1.319414	1.293040	1.302564
00:00:00.147	1.328205	1.300366	1.309890
00:00:00.147	1.324542	1.301099	1.311355
00:00:00.148	1.317216	1.312821	1.312821
00:00:00.148	1.316484	1.328205	1.303297
00:00:00.180	1.306227	1.317949	1.302564
00:00:00.180	1.305495	1.303297	1.295238
00:00:00.181	1.300366	1.312088	1.298901
00:00:00.181	1.305495	1.320879	1.305495
00:00:00.181	1.304762	1.314286	1.303297
00:00:00.182	1.293773	1.314286	1.299634
00:00:00.182	1.300366	1.320879	1.310623
00:00:00.183	1.310623	1.311355	1.302564
00:00:00.183	1.312088	1.315751	1.307692
00:00:00.183	1.318681	1.306960	1.306960
00:00:00.184	1.316484	1.295238	1.306227
00:00:00.184	1.323077	1.294505	1.309158
00:00:00.184	1.323810	1.290842	1.306960
00:00:00.185	1.308425	1.282051	1.300366
00:00:00.185	1.317216	1.290110	1.308425
00:00:00.185	1.314286	1.291575	1.296703
00:00:00.186	1.315018	1.301832	1.308425
00:00:00.186	1.306960	1.302564	1.312821
00:00:00.186	1.300366	1.302564	1.306960
00:00:00.187	1.306960	1.313553	1.312821
00:00:00.187	1.306227	1.315751	1.307692
00:00:00.188	1.285714	1.304762	1.306227
00:00:00.188	1.304762	1.315751	1.308425
00:00:00.188	1.304762	1.320879	1.302564
00:00:00.191	1.311355	1.316484	1.304029
00:00:00.191	1.312088	1.312088	1.306227
00:00:00.191	1.314286	1.312821	1.304762
00:00:00.192	1.310623	1.302564	1.295971
00:00:00.192	1.333333	1.315751	1.309158
00:00:00.192	1.329670	1.302564	1.309890
00:00:00.192	1.322344	1.294505	1.306960
00:00:00.192	1.323077	1.293040	1.304029
00:00:00.193	1.320879	1.297436	1.306960
00:00:00.193	1.313553	1.291575	1.299634
00:00:00.193	1.312088	1.314286	1.309890
00:00:00.193	1.298168	1.306227	1.293773
00:00:00.193	1.292308	1.310623	1.302564
00:00:00.193	1.276923	1.311355	1.293773
00:00:00.197	1.303297	1.323077	1.308425
00:00:00.197	1.309158	1.320147	1.304762
00:00:00.197	1.304762	1.309158	1.304029
00:00:00.197	1.312088	1.317949	1.304029
00:00:00.197	1.309158	1.309158	1.306960
00:00:00.197	1.317949	1.301099	1.305495
00:00:00.197	1.317949	1.308425	1.307692
00:00:00.197	1.323810	1.301099	1.295971
00:00:00.197	1.328938	1.299634	1.313553
00:00:00.198	1.315018	1.269597	1.296703
00:00:00.198	1.303297	1.276190	1.299634
00:00:00.199	1.323810	1.307692	1.305495
00:00:00.230	1.299634	1.299634	1.300366
00:00:00.230	1.304029	1.306960	1.306960
00:00:00.230	1.296703	1.304029	1.301099
00:00:00.232	1.303297	1.317216	1.305495
00:00:00.232	1.303297	1.323077	1.310623
00:00:00.232	1.306227	1.326007	1.309158
00:00:00.232	1.309158	1.326007	1.308425
00:00:00.232	1.304762	1.319414	1.295971
00:00:00.233	1.311355	1.309890	1.305495
00:00:00.233	1.316484	1.309158	1.308425
00:00:00.233	1.314286	1.290110	1.301832
00:00:00.234	1.317949	1.294505	1.305495
00:00:00.234	1.320879	1.287179	1.305495
00:00:00.234	1.326007	1.289377	1.300366
00:00:00.235	1.310623	1.287179	1.295238
00:00:00.235	1.323077	1.301832	1.311355
00:00:00.236	1.308425	1.303297	1.309158
00:00:00.236	1.317949	1.320879	1.310623
00:00:00.236	1.300366	1.318681	1.300366
00:00:00.237	1.307692	1.336264	1.309890
00:00:00.237	1.302564	1.342125	1.299634
00:00:00.237	1.285714	1.320147	1.300366
00:00:00.238	1.291575	1.310623	1.290842
00:00:00.238	1.298901	1.313553	1.304762
00:00:00.238	1.304029	1.302564	1.298901
00:00:00.239	1.300366	1.295971	1.300366
00:00:00.239	1.300366	1.277656	1.295238
00:00:00.239	1.317949	1.287179	1.297436
00:00:00.240	1.322344	1.305495	1.304762
00:00:00.240	1.322344	1.311355	1.309890
00:00:00.241	1.312821	1.287912	1.300366
00:00:00.241	1.327473	1.279853	1.306227
00:00:00.241	1.317216	1.276923	1.298168
00:00:00.242	1.310623	1.284982	1.292308
00:00:00.242	1.306227	1.291575	1.296703
00:00:00.242	1.298168	1.298901	1.289377
00:00:00.243	1.294505	1.290842	1.304029
00:00:00.243	1.295238	1.302564	1.302564
00:00:00.243	1.299634	1.312821	1.303297
00:00:00.244	1.293773	1.315751	1.303297
00:00:00.244	1.305495	1.332601	1.305495
00:00:00.244	1.311355	1.328205	1.305495
00:00:00.245	1.299634	1.315018	1.298901
00:00:00.245	1.320879	1.314286	1.306960
00:00:00.246	1.318681	1.298901	1.303297
00:00:00.246	1.312088	1.288645	1.298168
00:00:00.246	1.326740	1.284982	1.311355
00:00:00.247	1.312088	1.265934	1.293773
00:00:00.247	1.323810	1.286447	1.309158
00:00:00.247	1.321612	1.304762	1.304762
00:00:00.280	1.317216	1.317216	1.308425
00:00:00.280	1.299634	1.310623	1.308425
00:00:00.280	1.309158	1.326740	1.305495
00:00:00.282	1.301832	1.315018	1.296703
00:00:00.282	1.297436	1.321612	1.309158
00:00:00.282	1.297436	1.309890	1.303297
00:00:00.282	1.293773	1.298168	1.305495
00:00:00.282	1.309158	1.319414	1.305495
00:00:00.282	1.298901	1.318681	1.296703
00:00:00.283	1.321612	1.326007	1.308425
00:00:00.283	1.321612	1.328938	1.313553
00:00:00.283	1.320879	1.321612	1.306227
00:00:00.284	1.326740	1.306227	1.305495
00:00:00.284	1.311355	1.282784	1.297436
00:00:00.288	1.324542	1.295238	1.305495
00:00:00.288	1.316484	1.302564	1.314286
00:00:00.288	1.314286	1.295238	1.303297
00:00:00.288	1.304029	1.289377	1.299634
00:00:00.288	1.309890	1.312088	1.308425
00:00:00.288	1.300366	1.309890	1.303297
00:00:00.288	1.300366	1.312088	1.304762
00:00:00.288	1.295238	1.316484	1.300366
00:00:00.288	1.300366	1.301832	1.293773
00:00:00.288	1.305495	1.294505	1.302564
00:00:00.289	1.304029	1.300366	1.295238
00:00:00.289	1.311355	1.312821	1.306960
00:00:00.289	1.312088	1.311355	1.305495
00:00:00.289	1.307692	1.308425	1.300366
00:00:00.294	1.329670	1.311355	1.308425
00:00:00.294	1.320879	1.295971	1.306227
00:00:00.294	1.319414	1.293773	1.309158
00:00:00.294	1.328938	1.293773	1.304762
00:00:00.294	1.318681	1.296703	1.306960
00:00:00.294	1.321612	1.303297	1.312088
00:00:00.294	1.312088	1.304762	1.303297
00:00:00.294	1.305495	1.311355	1.304029
00:00:00.294	1.298901	1.315751	1.300366
00:00:00.294	1.297436	1.316484	1.302564
00:00:00.294	1.294505	1.321612	1.302564
00:00:00.294	1.298168	1.324542	1.305495
00:00:00.294	1.299634	1.316484	1.300366
00:00:00.294	1.306227	1.311355	1.307692
00:00:00.296	1.310623	1.300366	1.304029
00:00:00.296	1.317949	1.308425	1.304762
00:00:00.296	1.320879	1.312088	1.307692
00:00:00.296	1.323810	1.306960	1.311355
00:00:00.296	1.326740	1.304029	1.312088
00:00:00.296	1.328205	1.287912	1.306960
00:00:00.297	1.322344	1.271062	1.306960
00:00:00.297	1.327473	1.285714	1.305495
00:00:00.329	1.315018	1.310623	1.311355
00:00:00.330	1.309158	1.318681	1.295238
00:00:00.330	1.298901	1.326007	1.306960
00:00:00.330	1.298901	1.320147	1.313553
00:00:00.331	1.301832	1.318681	1.311355
00:00:00.331	1.303297	1.302564	1.310623
00:00:00.331	1.297436	1.285714	1.315018
00:00:00.332	1.301099	1.292308	1.311355
00:00:00.332	1.306960	1.299634	1.310623
00:00:00.332	1.300366	1.316484	1.300366
00:00:00.333	1.313553	1.328205	1.303297
00:00:00.333	1.318681	1.319414	1.304762
00:00:00.334	1.320879	1.312821	1.305495
00:00:00.334	1.322344	1.304029	1.309158
00:00:00.334	1.323810	1.295238	1.305495
00:00:00.335	1.323810	1.279121	1.303297
00:00:00.335	1.326740	1.287912	1.310623
00:00:00.335	1.318681	1.309158	1.306960
00:00:00.336	1.312088	1.315018	1.305495
00:00:00.336	1.305495	1.317949	1.307692
00:00:00.336	1.290842	1.309158	1.296703
00:00:00.337	1.303297	1.324542	1.303297
00:00:00.337	1.297436	1.322344	1.299634
00:00:00.338	1.306227	1.323810	1.302564
00:00:00.338	1.306960	1.322344	1.307692
00:00:00.338	1.301832	1.307692	1.293040
00:00:00.339	1.310623	1.317949	1.300366
00:00:00.339	1.317216	1.315018	1.309158
00:00:00.339	1.312088	1.306227	1.305495
00:00:00.340	1.320147	1.304762	1.303297
00:00:00.340	1.315751	1.295971	1.304762
00:00:00.340	1.324542	1.295971	1.314286
00:00:00.341	1.315018	1.274725	1.297436
00:00:00.341	1.308425	1.268132	1.293040
00:00:00.341	1.311355	1.286447	1.306960
00:00:00.342	1.302564	1.284982	1.293773
00:00:00.342	1.305495	1.304029	1.308425
00:00:00.342	1.301099	1.321612	1.298168
00:00:00.343	1.299634	1.329670	1.300366
00:00:00.343	1.304029	1.334066	1.306227
00:00:00.344	1.293040	1.321612	1.306960
00:00:00.344	1.292308	1.317216	1.300366
00:00:00.344	1.316484	1.329670	1.308425
00:00:00.345	1.317949	1.317949	1.300366
00:00:00.345	1.316484	1.309890	1.306960
00:00:00.345	1.321612	1.304762	1.304029
00:00:00.346	1.312821	1.281319	1.299634
00:00:00.346	1.329670	1.290110	1.317216
00:00:00.346	1.326007	1.282051	1.309158
00:00:00.350	1.326740	1.280586	1.313553
00:00:00.380	1.318681	1.297436	1.310623
00:00:00.380	1.308425	1.304762	1.290110
00:00:00.380	1.302564	1.318681	1.300366
00:00:00.380	1.300366	1.328938	1.299634
00:00:00.380	1.291575	1.319414	1.292308
00:00:00.382	1.302564	1.331136	1.309890
00:00:00.382	1.298168	1.318681	1.304029
00:00:00.382	1.295238	1.278388	1.300366
00:00:00.383	1.309158	1.277656	1.304762
00:00:00.383	1.310623	1.295238	1.304029
00:00:00.385	1.322344	1.320147	1.312088
00:00:00.385	1.316484	1.307692	1.299634
00:00:00.385	1.320879	1.306227	1.309890
00:00:00.385	1.324542	1.296703	1.312821
00:00:00.385	1.313553	1.292308	1.309890
00:00:00.385	1.322344	1.304029	1.304762
00:00:00.385	1.319414	1.306960	1.304762
00:00:00.385	1.302564	1.303297	1.298168
00:00:00.385	1.315018	1.320147	1.310623
00:00:00.389	1.305495	1.315751	1.305495
00:00:00.389	1.301832	1.318681	1.306227
00:00:00.389	1.294505	1.323077	1.302564
00:00:00.389	1.292308	1.317949	1.295971
00:00:00.389	1.302564	1.323810	1.303297
00:00:00.389	1.304762	1.320879	1.307692
00:00:00.389	1.305495	1.314286	1.302564
00:00:00.389	1.311355	1.309158	1.305495
00:00:00.389	1.315751	1.306960	1.307692
00:00:00.389	1.317216	1.298901	1.305495
00:00:00.389	1.328205	1.299634	1.310623
00:00:00.390	1.315018	1.293773	1.300366
00:00:00.390	1.326007	1.320879	1.306227
00:00:00.390	1.313553	1.315751	1.294505
00:00:00.391	1.320147	1.317949	1.311355
00:00:00.391	1.314286	1.296703	1.300366
00:00:00.392	1.307692	1.297436	1.300366
00:00:00.392	1.305495	1.317216	1.306227
00:00:00.392	1.293773	1.310623	1.298901
00:00:00.393	1.301099	1.309158	1.308425
00:00:00.393	1.301832	1.284982	1.304762
00:00:00.393	1.300366	1.298168	1.300366
00:00:00.394	1.300366	1.297436	1.307692
00:00:00.394	1.312821	1.286447	1.306227
00:00:00.394	1.314286	1.262271	1.304029
00:00:00.395	1.310623	1.268864	1.293773
00:00:00.395	1.317216	1.300366	1.309158
00:00:00.395	1.314286	1.303297	1.299634
00:00:00.396	1.327473	1.308425	1.309158
00:00:00.396	1.309158	1.298168	1.296703
00:00:00.397	1.319414	1.309890	1.307692
00:00:00.429	1.309158	1.307692	1.302564
00:00:00.429	1.312821	1.316484	1.306227
00:00:00.429	1.308425	1.318681	1.306227
00:00:00.430	1.302564	1.323077	1.308425
00:00:00.430	1.303297	1.327473	1.312088
00:00:00.430	1.306227	1.329670	1.309890
00:00:00.432	1.299634	1.318681	1.306227
00:00:00.432	1.298168	1.309890	1.306960
00:00:00.432	1.303297	1.307692	1.306227
00:00:00.432	1.310623	1.313553	1.312821
00:00:00.432	1.318681	1.308425	1.309158
00:00:00.433	1.311355	1.299634	1.297436
00:00:00.433	1.323810	1.298901	1.310623
00:00:00.433	1.329670	1.298901	1.311355
00:00:00.434	1.312088	1.292308	1.298168
00:00:00.434	1.328205	1.296703	1.310623
00:00:00.434	1.324542	1.294505	1.307692
00:00:00.435	1.315018	1.301099	1.301099
00:00:00.435	1.309890	1.309158	1.303297
00:00:00.436	1.296703	1.323077	1.304029
00:00:00.436	1.301832	1.317949	1.304029
00:00:00.436	1.296703	1.323077	1.308425
00:00:00.437	1.297436	1.320147	1.301099
00:00:00.437	1.302564	1.324542	1.299634
00:00:00.437	1.303297	1.331136	1.306960
00:00:00.438	1.304762	1.321612	1.305495
00:00:00.438	1.311355	1.322344	1.307692
00:00:00.438	1.320147	1.304762	1.307692
00:00:00.439	1.321612	1.298168	1.313553
00:00:00.439	1.318681	1.285714	1.309890
00:00:00.439	1.319414	1.284982	1.309890
00:00:00.440	1.328938	1.280586	1.312821
00:00:00.440	1.323810	1.275458	1.306227
00:00:00.441	1.321612	1.293773	1.300366
00:00:00.441	1.319414	1.322344	1.302564
00:00:00.441	1.304029	1.337729	1.300366
00:00:00.443	1.301832	1.343590	1.306227
00:00:00.443	1.284982	1.315018	1.296703
00:00:00.443	1.298168	1.309890	1.303297
00:00:00.443	1.305495	1.304029	1.310623
00:00:00.443	1.303297	1.263736	1.310623
00:00:00.443	1.309158	1.261538	1.304762
00:00:00.444	1.302564	1.282051	1.310623
00:00:00.444	1.319414	1.321612	1.310623
00:00:00.444	1.312821	1.312821	1.290842
00:00:00.445	1.324542	1.328205	1.309890
00:00:00.445	1.323810	1.324542	1.304029
00:00:00.446	1.328205	1.320879	1.306227
00:00:00.446	1.326007	1.312821	1.300366
00:00:00.446	1.320879	1.309158	1.305495
00:00:00.479	1.322344	1.312088	1.313553
00:00:00.480	1.312088	1.307692	1.298168
00:00:00.480	1.307692	1.318681	1.312821
00:00:00.480	1.302564	1.314286	1.300366
00:00:00.480	1.290110	1.310623	1.297436
00:00:00.480	1.284982	1.310623	1.300366
00:00:00.485	1.291575	1.323077	1.300366
00:00:00.485	1.301832	1.331136	1.310623
00:00:00.485	1.299634	1.320879	1.298901
00:00:00.485	1.315751	1.327473	1.308425
00:00:00.485	1.309158	1.313553	1.300366
00:00:00.485	1.314286	1.283516	1.290842
00:00:00.485	1.315751	1.276923	1.301832
00:00:00.485	1.328205	1.272527	1.313553
00:00:00.485	1.320147	1.263736	1.306227
00:00:00.485	1.312088	1.268132	1.298168
00:00:00.485	1.326007	1.277656	1.299634
00:00:00.486	1.313553	1.309158	1.300366
00:00:00.486	1.315751	1.335531	1.309158
00:00:00.486	1.298901	1.312088	1.307692
00:00:00.486	1.304029	1.309890	1.300366
00:00:00.486	1.297436	1.317216	1.303297
00:00:00.486	1.297436	1.320879	1.303297
00:00:00.487	1.296703	1.328938	1.302564
00:00:00.487	1.302564	1.319414	1.304762
00:00:00.487	1.307692	1.317216	1.304029
00:00:00.488	1.310623	1.314286	1.306960
00:00:00.488	1.317216	1.305495	1.306960
00:00:00.488	1.317216	1.302564	1.306960
00:00:00.489	1.321612	1.299634	1.308425
00:00:00.489	1.325275	1.295971	1.304029
00:00:00.490	1.320147	1.295971	1.308425
00:00:00.490	1.305495	1.284982	1.300366
00:00:00.490	1.320147	1.302564	1.304029
00:00:00.491	1.317216	1.304762	1.312088
00:00:00.491	1.306960	1.301099	1.297436
00:00:00.491	1.295238	1.306960	1.300366
00:00:00.492	1.306227	1.320879	1.305495
00:00:00.492	1.301099	1.317216	1.304029
00:00:00.492	1.300366	1.322344	1.310623
00:00:00.493	1.295238	1.317216	1.302564
00:00:00.493	1.296703	1.315751	1.298901
00:00:00.493	1.298901	1.313553	1.294505
00:00:00.494	1.305495	1.318681	1.299634
00:00:00.494	1.312088	1.301832	1.300366
00:00:00.495	1.313553	1.285714	1.300366
00:00:00.495	1.307692	1.264469	1.294505
00:00:00.495	1.328205	1.286447	1.310623
00:00:00.496	1.323077	1.289377	1.310623
00:00:00.496	1.316484	1.281319	1.310623
00:00:00.528	1.315751	1.288645	1.297436
00:00:00.529	1.320147	1.321612	1.308425
00:00:00.529	1.311355	1.316484	1.297436
00:00:00.529	1.307692	1.320879	1.305495
00:00:00.530	1.305495	1.337729	1.309890
00:00:00.530	1.299634	1.340659	1.308425
00:00:00.530	1.282784	1.315018	1.297436
00:00:00.531	1.305495	1.316484	1.304762
00:00:00.531	1.304029	1.305495	1.303297
00:00:00.531	1.311355	1.307692	1.311355
00:00:00.532	1.317216	1.306227	1.306227
00:00:00.532	1.311355	1.305495	1.306227
00:00:00.532	1.319414	1.303297	1.305495
00:00:00.533	1.324542	1.298168	1.305495
00:00:00.533	1.323810	1.298168	1.309158
00:00:00.534	1.323077	1.280586	1.293773
00:00:00.534	1.320879	1.277656	1.305495
00:00:00.534	1.320147	1.282784	1.300366
00:00:00.535	1.310623	1.281319	1.295238
00:00:00.535	1.310623	1.299634	1.306227
00:00:00.536	1.304029	1.320879	1.305495
00:00:00.536	1.306960	1.336996	1.305495
00:00:00.536	1.298168	1.331868	1.290842
00:00:00.536	1.297436	1.337729	1.309890
00:00:00.537	1.301832	1.327473	1.303297
00:00:00.537	1.304029	1.318681	1.306227
00:00:00.537	1.302564	1.311355	1.309158
00:00:00.538	1.312088	1.307692	1.310623
00:00:00.538	1.318681	1.298168	1.304762
00:00:00.539	1.326740	1.298901	1.310623
00:00:00.539	1.317216	1.283516	1.300366
00:00:00.539	1.310623	1.283516	1.294505
00:00:00.540	1.323077	1.308425	1.306960
00:00:00.540	1.306960	1.298901	1.304762
00:00:00.540	1.312088	1.309890	1.312821
00:00:00.542	1.306227	1.306227	1.301832
00:00:00.542	1.313553	1.309890	1.304762
00:00:00.542	1.307692	1.314286	1.306960
00:00:00.542	1.299634	1.323810	1.312088
00:00:00.542	1.300366	1.315751	1.303297
00:00:00.542	1.308425	1.282784	1.304762
00:00:00.544	1.297436	1.301099	1.300366
00:00:00.544	1.305495	1.321612	1.304029
00:00:00.546	1.301099	1.306960	1.304029
00:00:00.546	1.301832	1.291575	1.299634
00:00:00.546	1.331136	1.300366	1.306227
00:00:00.546	1.320879	1.281319	1.304762
