timestamp	ch1	ch2	ch3
00:00:00.000	1.306227	1.260073	1.302564
00:00:00.001	1.311355	1.230769	1.298168
00:00:00.001	1.315018	1.214652	1.296703
00:00:00.001	1.320147	1.240293	1.293040
00:00:00.001	1.326740	1.273993	1.287912
00:00:00.002	1.311355	1.280586	1.278388
00:00:00.002	1.318681	1.310623	1.302564
00:00:00.002	1.302564	1.327473	1.294505
00:00:00.003	1.316484	1.336264	1.296703
00:00:00.003	1.312821	1.336264	1.309158
00:00:00.003	1.307692	1.324542	1.304762
00:00:00.004	1.295238	1.306960	1.309158
00:00:00.004	1.307692	1.312088	1.316484
00:00:00.005	1.309158	1.301099	1.297436
00:00:00.005	1.301832	1.295971	1.308425
00:00:00.005	1.305495	1.295971	1.304762
00:00:00.006	1.301832	1.287179	1.284249
00:00:00.006	1.309890	1.287179	1.281319
00:00:00.006	1.309158	1.313553	1.270330
00:00:00.007	1.298901	1.323077	1.271062
00:00:00.007	1.303297	1.331136	1.287179
00:00:00.007	1.306960	1.334066	1.323810
00:00:00.008	1.296703	1.332601	1.353114
00:00:00.008	1.301099	1.326007	1.361172
00:00:00.008	1.278388	1.307692	1.339927
00:00:00.041	1.284982	1.301832	1.305495
00:00:00.041	1.297436	1.306227	1.296703
00:00:00.041	1.270330	1.317949	1.302564
00:00:00.042	1.311355	1.303297	1.293773
00:00:00.042	1.379487	1.317949	1.312821
00:00:00.042	1.411722	1.321612	1.305495
00:00:00.043	1.402930	1.327473	1.286447
00:00:00.043	1.370696	1.320879	1.295238
00:00:00.044	1.326007	1.309158	1.298901
00:00:00.044	1.258608	1.347253	1.280586
00:00:00.044	1.230037	1.333333	1.275458
00:00:00.045	1.259341	1.321612	1.302564
00:00:00.045	1.295238	1.289377	1.308425
00:00:00.045	1.316484	1.246886	1.301832
00:00:00.046	1.311355	1.245421	1.272527
00:00:00.046	1.309890	1.248352	1.257875
00:00:00.046	1.325275	1.271062	1.265934
00:00:00.047	1.310623	1.285714	1.284249
00:00:00.047	1.299634	1.287179	1.298901
00:00:00.047	1.285714	1.274725	1.337729
00:00:00.048	1.291575	1.300366	1.373626
00:00:00.048	1.299634	1.320879	1.387546
00:00:00.050	1.291575	1.306227	1.332601
00:00:00.050	1.317216	1.306960	1.306960
00:00:00.050	1.385348	1.315751	1.303297
00:00:00.050	1.367766	1.315018	1.298901
00:00:00.050	1.326740	1.309890	1.302564
00:00:00.050	1.254945	1.331868	1.310623
00:00:00.051	1.244689	1.326740	1.291575
00:00:00.051	1.264469	1.306227	1.282784
00:00:00.051	1.334799	1.323810	1.290110
00:00:00.052	1.378022	1.319414	1.289377
00:00:00.052	1.338462	1.316484	1.293773
00:00:00.053	1.265201	1.293773	1.295971
00:00:00.053	1.250549	1.293040	1.298168
00:00:00.053	1.210989	1.313553	1.312821
00:00:00.057	1.251282	1.305495	1.306227
00:00:00.057	1.315018	1.294505	1.306227
00:00:00.057	1.329670	1.314286	1.306227
00:00:00.057	1.353114	1.314286	1.313553
00:00:00.057	1.364835	1.290842	1.300366
00:00:00.057	1.372894	1.285714	1.303297
00:00:00.057	1.347253	1.297436	1.293773
00:00:00.057	1.335531	1.317216	1.295238
00:00:00.057	1.319414	1.345788	1.280586
00:00:00.057	1.299634	1.339927	1.297436
00:00:00.057	1.311355	1.320147	1.298901
00:00:00.057	1.310623	1.271062	1.276923
00:00:00.061	1.306227	1.276190	1.293040
00:00:00.061	1.279121	1.278388	1.302564
00:00:00.091	1.245421	1.270330	1.313553
00:00:00.091	1.256410	1.260806	1.317949
00:00:00.091	1.272527	1.258608	1.300366
00:00:00.091	1.293040	1.303297	1.300366
00:00:00.092	1.331136	1.304762	1.300366
00:00:00.093	1.381685	1.317949	1.304762
00:00:00.093	1.366300	1.312821	1.295238
00:00:00.093	1.343590	1.357509	1.306227
00:00:00.093	1.327473	1.449084	1.295238
00:00:00.094	1.304029	1.419780	1.297436
00:00:00.094	1.285714	1.349451	1.293773
00:00:00.094	1.307692	1.260806	1.291575
00:00:00.095	1.321612	1.214652	1.334799
00:00:00.095	1.312088	1.206593	1.314286
00:00:00.095	1.330403	1.240293	1.323810
00:00:00.096	1.331868	1.239560	1.308425
00:00:00.096	1.309890	1.248352	1.300366
00:00:00.096	1.300366	1.292308	1.297436
00:00:00.097	1.285714	1.325275	1.297436
00:00:00.097	1.295971	1.315018	1.299634
00:00:00.098	1.331136	1.296703	1.306960
00:00:00.098	1.314286	1.312088	1.304762
00:00:00.098	1.300366	1.390476	1.315018
00:00:00.099	1.279121	1.399267	1.311355
00:00:00.099	1.266667	1.348718	1.296703
00:00:00.099	1.301099	1.329670	1.308425
00:00:00.100	1.269597	1.296703	1.298168
00:00:00.100	1.294505	1.328938	1.296703
00:00:00.100	1.326740	1.301099	1.300366
00:00:00.101	1.323077	1.291575	1.306960
00:00:00.101	1.382418	1.302564	1.311355
00:00:00.101	1.414652	1.283516	1.309890
00:00:00.102	1.399267	1.267399	1.285714
00:00:00.102	1.405861	1.350183	1.279121
00:00:00.103	1.291575	1.311355	1.278388
00:00:00.103	1.174359	1.286447	1.287912
00:00:00.103	1.159707	1.289377	1.300366
00:00:00.104	1.202198	1.225641	1.296703
00:00:00.104	1.284249	1.182418	1.284982
00:00:00.104	1.308425	1.249084	1.273993
00:00:00.106	1.320879	1.320147	1.253480
00:00:00.106	1.271795	1.287912	1.247619
00:00:00.106	1.290842	1.296703	1.307692
00:00:00.106	1.298901	1.343590	1.349451
00:00:00.106	1.279853	1.365568	1.441026
00:00:00.106	1.338462	1.393407	1.379487
00:00:00.107	1.372894	1.406593	1.345055
00:00:00.107	1.367033	1.478388	1.295238
00:00:00.108	1.370696	1.427106	1.299634
00:00:00.108	1.357509	1.304762	1.305495
00:00:00.140	1.342125	1.147253	1.305495
00:00:00.140	1.277656	1.084982	1.296703
00:00:00.141	1.264469	1.110623	1.294505
00:00:00.141	1.305495	1.190476	1.306960
00:00:00.142	1.333333	1.252747	1.293773
00:00:00.142	1.336264	1.179487	1.252747
00:00:00.142	1.311355	1.194139	1.271062
00:00:00.143	1.281319	1.351648	1.291575
00:00:00.143	1.273260	1.482784	1.309158
00:00:00.143	1.277656	1.473260	1.326740
00:00:00.144	1.319414	1.418315	1.345055
00:00:00.144	1.290842	1.430769	1.315018
00:00:00.144	1.288645	1.356777	1.300366
00:00:00.145	1.308425	1.268864	1.279853
00:00:00.145	1.333333	1.227106	1.276923
00:00:00.145	1.347253	1.194139	1.287912
00:00:00.146	1.331136	1.221245	1.295971
00:00:00.146	1.320147	1.276190	1.307692
00:00:00.148	1.412454	1.295971	1.298168
00:00:00.148	1.382418	1.304762	1.310623
00:00:00.148	1.323077	1.313553	1.309158
00:00:00.148	1.290842	1.327473	1.310623
00:00:00.148	1.253480	1.326740	1.290842
00:00:00.148	1.240293	1.342125	1.303297
00:00:00.149	1.219780	1.345055	1.293040
00:00:00.150	1.215385	1.364103	1.291575
00:00:00.150	1.212454	1.387546	1.291575
00:00:00.150	1.248352	1.393407	1.309158
00:00:00.150	1.298901	1.382418	1.304762
00:00:00.150	1.372894	1.369963	1.303297
00:00:00.151	1.408059	1.326007	1.304029
00:00:00.151	1.382418	1.256410	1.298901
00:00:00.153	1.358242	1.212454	1.304762
00:00:00.153	1.309158	1.205861	1.297436
00:00:00.153	1.291575	1.203663	1.311355
00:00:00.153	1.287179	1.265201	1.315751
00:00:00.153	1.307692	1.317216	1.300366
00:00:00.153	1.312088	1.315018	1.309158
00:00:00.156	1.312088	1.296703	1.310623
00:00:00.156	1.313553	1.309158	1.300366
00:00:00.156	1.328205	1.320879	1.306227
00:00:00.156	1.317949	1.334066	1.303297
00:00:00.156	1.315751	1.334799	1.293040
00:00:00.156	1.317216	1.287912	1.290110
00:00:00.156	1.314286	1.276923	1.290110
00:00:00.156	1.318681	1.293773	1.294505
00:00:00.157	1.320147	1.312821	1.293040
00:00:00.158	1.319414	1.334066	1.296703
00:00:00.158	1.313553	1.405861	1.321612
00:00:00.158	1.306227	1.412454	1.309890
00:00:00.190	1.306227	1.350183	1.339194
00:00:00.190	1.273993	1.297436	1.346520
00:00:00.191	1.273260	1.250549	1.323810
00:00:00.191	1.303297	1.258608	1.290842
00:00:00.191	1.363370	1.303297	1.308425
00:00:00.192	1.384615	1.254945	1.303297
00:00:00.192	1.322344	1.200733	1.279853
00:00:00.192	1.287179	1.227839	1.292308
00:00:00.193	1.257875	1.390476	1.305495
00:00:00.193	1.268132	1.479121	1.305495
00:00:00.193	1.282784	1.469597	1.315018
00:00:00.194	1.301832	1.368498	1.310623
00:00:00.194	1.311355	1.265201	1.302564
00:00:00.194	1.362637	1.196337	1.294505
00:00:00.195	1.354579	1.175824	1.290842
00:00:00.195	1.323077	1.179487	1.287912
00:00:00.196	1.306227	1.228571	1.297436
00:00:00.196	1.291575	1.263736	1.291575
00:00:00.196	1.271062	1.331868	1.304029
00:00:00.197	1.265201	1.332601	1.300366
00:00:00.197	1.263004	1.384615	1.282784
00:00:00.197	1.282051	1.379487	1.304029
00:00:00.198	1.278388	1.378022	1.312088
00:00:00.198	1.315018	1.326740	1.318681
00:00:00.198	1.321612	1.269597	1.303297
00:00:00.199	1.293040	1.190476	1.293773
00:00:00.199	1.338462	1.170696	1.285714
00:00:00.199	1.383150	1.224908	1.298901
00:00:00.200	1.364103	1.289377	1.306960
00:00:00.200	1.356044	1.330403	1.304029
00:00:00.201	1.340659	1.312821	1.304762
00:00:00.201	1.336996	1.358974	1.310623
00:00:00.201	1.322344	1.378755	1.306960
00:00:00.202	1.336996	1.386813	1.304029
00:00:00.202	1.317949	1.383883	1.323810
00:00:00.202	1.253480	1.336996	1.312821
00:00:00.203	1.226374	1.302564	1.308425
00:00:00.203	1.230769	1.312821	1.300366
00:00:00.203	1.196337	1.381685	1.309158
00:00:00.204	1.217582	1.392674	1.304762
00:00:00.204	1.259341	1.376557	1.298901
00:00:00.204	1.323077	1.309890	1.282784
00:00:00.205	1.344322	1.212454	1.287179
00:00:00.205	1.352381	1.180952	1.289377
00:00:00.206	1.347253	1.201465	1.306227
00:00:00.206	1.336996	1.238095	1.312821
00:00:00.206	1.350916	1.235165	1.317216
00:00:00.207	1.375824	1.243956	1.315018
00:00:00.207	1.383150	1.288645	1.314286
00:00:00.207	1.342857	1.288645	1.323810
00:00:00.240	1.295971	1.311355	1.287912
00:00:00.240	1.271795	1.337729	1.298168
00:00:00.240	1.222711	1.297436	1.291575
00:00:00.242	1.279121	1.268132	1.300366
00:00:00.242	1.300366	1.315751	1.304762
00:00:00.242	1.306227	1.402930	1.305495
00:00:00.242	1.322344	1.414652	1.306227
00:00:00.242	1.309158	1.369231	1.311355
00:00:00.242	1.298901	1.268132	1.307692
00:00:00.243	1.322344	1.206593	1.303297
00:00:00.243	1.323810	1.213919	1.291575
00:00:00.243	1.317949	1.219048	1.300366
00:00:00.244	1.317216	1.263004	1.302564
00:00:00.244	1.298901	1.304762	1.298168
00:00:00.245	1.304029	1.359707	1.304029
00:00:00.245	1.306227	1.367033	1.306960
00:00:00.245	1.304762	1.369231	1.293040
00:00:00.246	1.320879	1.401465	1.308425
00:00:00.247	1.311355	1.400733	1.296703
00:00:00.247	1.334066	1.385348	1.312088
00:00:00.248	1.325275	1.350183	1.300366
00:00:00.248	1.282051	1.306227	1.312088
00:00:00.248	1.314286	1.265201	1.320879
00:00:00.249	1.345055	1.226374	1.309158
00:00:00.249	1.379487	1.277656	1.316484
