timestamp	ch1	ch2	ch3
00:00:00.000	1.306960	1.291575	1.317216
00:00:00.001	1.304029	1.291575	1.312821
00:00:00.001	1.315018	1.285714	1.314286
00:00:00.001	1.310623	1.284249	1.302564
00:00:00.002	1.298168	1.287179	1.289377
00:00:00.002	1.313553	1.319414	1.300366
00:00:00.002	1.308425	1.330403	1.293040
00:00:00.003	1.309158	1.334799	1.288645
00:00:00.003	1.321612	1.339927	1.292308
00:00:00.004	1.317949	1.326007	1.297436
00:00:00.004	1.309158	1.316484	1.299634
00:00:00.004	1.312088	1.301099	1.300366
00:00:00.005	1.312088	1.305495	1.304029
00:00:00.005	1.312088	1.313553	1.314286
00:00:00.005	1.306227	1.307692	1.314286
00:00:00.006	1.309158	1.301832	1.320879
00:00:00.006	1.309158	1.292308	1.320879
00:00:00.006	1.301832	1.293040	1.312088
00:00:00.007	1.312088	1.296703	1.323810
00:00:00.007	1.315751	1.304029	1.315751
00:00:00.007	1.315018	1.302564	1.309158
00:00:00.008	1.308425	1.311355	1.299634
00:00:00.008	1.316484	1.318681	1.299634
00:00:00.009	1.316484	1.337729	1.298901
00:00:00.009	1.306227	1.340659	1.288645
00:00:00.009	1.301832	1.334066	1.293773
00:00:00.010	1.300366	1.323077	1.293040
00:00:00.011	1.306227	1.312821	1.293040
00:00:00.011	1.315751	1.298901	1.304762
00:00:00.011	1.323077	1.285714	1.309890
00:00:00.011	1.312088	1.269597	1.303297
00:00:00.011	1.313553	1.279853	1.314286
00:00:00.012	1.315018	1.275458	1.315018
00:00:00.012	1.309890	1.280586	1.314286
00:00:00.012	1.312088	1.293773	1.318681
00:00:00.013	1.309158	1.282051	1.312821
00:00:00.013	1.310623	1.291575	1.310623
00:00:00.014	1.310623	1.290842	1.304029
00:00:00.014	1.305495	1.303297	1.299634
00:00:00.014	1.310623	1.316484	1.290842
00:00:00.046	1.306960	1.317216	1.290110
00:00:00.047	1.323077	1.336264	1.291575
00:00:00.047	1.304762	1.328205	1.291575
00:00:00.048	1.306960	1.320879	1.281319
00:00:00.048	1.318681	1.328938	1.298901
00:00:00.048	1.315751	1.318681	1.300366
00:00:00.049	1.309890	1.320879	1.309158
00:00:00.049	1.301099	1.298168	1.303297
00:00:00.049	1.302564	1.293040	1.310623
00:00:00.050	1.306227	1.297436	1.318681
00:00:00.050	1.296703	1.290110	1.321612
00:00:00.050	1.311355	1.295971	1.318681
00:00:00.051	1.319414	1.296703	1.315018
00:00:00.051	1.308425	1.300366	1.306960
00:00:00.051	1.300366	1.291575	1.304029
00:00:00.052	1.312088	1.309158	1.305495
00:00:00.052	1.301832	1.310623	1.299634
00:00:00.053	1.304762	1.319414	1.299634
00:00:00.053	1.316484	1.331868	1.287179
00:00:00.053	1.307692	1.336264	1.297436
00:00:00.054	1.310623	1.330403	1.288645
00:00:00.054	1.303297	1.314286	1.292308
00:00:00.054	1.313553	1.303297	1.309158
00:00:00.055	1.307692	1.279853	1.308425
00:00:00.055	1.314286	1.279121	1.305495
00:00:00.055	1.306227	1.288645	1.309158
00:00:00.057	1.312821	1.283516	1.319414
00:00:00.057	1.302564	1.274725	1.311355
00:00:00.057	1.311355	1.282784	1.320147
00:00:00.057	1.313553	1.297436	1.317216
00:00:00.057	1.311355	1.297436	1.303297
00:00:00.058	1.313553	1.309158	1.303297
00:00:00.058	1.313553	1.318681	1.303297
00:00:00.058	1.312088	1.308425	1.296703
00:00:00.059	1.310623	1.314286	1.298168
00:00:00.059	1.310623	1.328205	1.293773
00:00:00.059	1.306227	1.322344	1.285714
00:00:00.061	1.317216	1.339194	1.298901
00:00:00.061	1.310623	1.342125	1.294505
00:00:00.061	1.303297	1.317216	1.298168
00:00:00.061	1.315018	1.310623	1.318681
00:00:00.061	1.309158	1.292308	1.307692
00:00:00.061	1.307692	1.281319	1.298901
00:00:00.062	1.303297	1.290842	1.313553
00:00:00.063	1.303297	1.290842	1.317216
00:00:00.063	1.293773	1.287912	1.317216
00:00:00.063	1.306960	1.293773	1.308425
00:00:00.063	1.308425	1.294505	1.298901
00:00:00.064	1.312821	1.308425	1.306960
00:00:00.064	1.307692	1.303297	1.293040
00:00:00.096	1.309158	1.303297	1.302564
00:00:00.097	1.319414	1.307692	1.292308
00:00:00.097	1.306960	1.301832	1.282784
00:00:00.097	1.300366	1.312821	1.292308
00:00:00.098	1.311355	1.317216	1.301832
00:00:00.098	1.306227	1.309158	1.298901
00:00:00.098	1.323810	1.312088	1.314286
00:00:00.099	1.307692	1.309158	1.312821
00:00:00.099	1.297436	1.293773	1.308425
00:00:00.099	1.314286	1.293040	1.320147
00:00:00.100	1.319414	1.284982	1.317216
00:00:00.100	1.309158	1.283516	1.315751
00:00:00.100	1.311355	1.293040	1.320147
00:00:00.101	1.304762	1.288645	1.317949
00:00:00.101	1.294505	1.305495	1.309890
00:00:00.102	1.304029	1.311355	1.308425
00:00:00.102	1.306227	1.313553	1.297436
00:00:00.102	1.295971	1.315751	1.297436
00:00:00.103	1.315018	1.335531	1.291575
00:00:00.103	1.320879	1.339194	1.287912
00:00:00.103	1.311355	1.342125	1.298901
00:00:00.104	1.302564	1.331868	1.285714
00:00:00.104	1.300366	1.331868	1.304029
00:00:00.104	1.307692	1.313553	1.309158
00:00:00.105	1.308425	1.299634	1.313553
00:00:00.105	1.312088	1.290110	1.317949
00:00:00.105	1.314286	1.281319	1.317216
00:00:00.106	1.303297	1.266667	1.306227
00:00:00.106	1.299634	1.267399	1.303297
00:00:00.107	1.311355	1.285714	1.313553
00:00:00.107	1.301099	1.284249	1.298168
00:00:00.107	1.308425	1.302564	1.306227
00:00:00.108	1.306960	1.312821	1.296703
00:00:00.108	1.314286	1.312088	1.296703
00:00:00.108	1.313553	1.317216	1.293773
00:00:00.109	1.315018	1.320147	1.291575
00:00:00.109	1.320147	1.325275	1.294505
00:00:00.109	1.315751	1.326740	1.296703
00:00:00.110	1.308425	1.325275	1.296703
00:00:00.110	1.291575	1.304762	1.295238
00:00:00.110	1.303297	1.290110	1.312088
00:00:00.111	1.309158	1.275458	1.312821
00:00:00.111	1.304029	1.268864	1.317949
00:00:00.112	1.312088	1.276190	1.315018
00:00:00.112	1.326740	1.273260	1.312821
00:00:00.112	1.311355	1.273993	1.313553
00:00:00.113	1.300366	1.295238	1.314286
00:00:00.113	1.300366	1.306960	1.304762
00:00:00.113	1.298168	1.343590	1.311355
00:00:00.114	1.306227	1.353846	1.305495
00:00:00.147	1.298168	1.340659	1.284249
00:00:00.147	1.312088	1.332601	1.292308
00:00:00.147	1.325275	1.326740	1.284982
00:00:00.147	1.340659	1.319414	1.293040
00:00:00.147	1.339927	1.314286	1.295238
00:00:00.148	1.305495	1.297436	1.291575
00:00:00.148	1.312088	1.311355	1.309890
00:00:00.148	1.311355	1.293040	1.305495
00:00:00.149	1.306227	1.283516	1.309158
00:00:00.149	1.307692	1.280586	1.311355
00:00:00.149	1.307692	1.282051	1.322344
00:00:00.150	1.313553	1.303297	1.323810
00:00:00.150	1.306227	1.299634	1.312821
00:00:00.152	1.303297	1.284249	1.307692
00:00:00.152	1.313553	1.289377	1.306960
00:00:00.152	1.315751	1.279853	1.303297
00:00:00.152	1.323810	1.300366	1.299634
00:00:00.152	1.326740	1.323077	1.291575
00:00:00.152	1.322344	1.323810	1.280586
00:00:00.154	1.318681	1.338462	1.287179
00:00:00.154	1.313553	1.331868	1.290842
00:00:00.154	1.307692	1.331136	1.290842
00:00:00.154	1.295971	1.328938	1.299634
00:00:00.154	1.260806	1.310623	1.300366
00:00:00.154	1.247619	1.299634	1.318681
00:00:00.156	1.301099	1.299634	1.317216
00:00:00.156	1.305495	1.292308	1.312088
00:00:00.156	1.315018	1.295238	1.317216
00:00:00.157	1.306960	1.279121	1.311355
00:00:00.157	1.306227	1.275458	1.306227
00:00:00.157	1.315018	1.290110	1.302564
00:00:00.157	1.317949	1.300366	1.298168
00:00:00.157	1.313553	1.306960	1.298901
00:00:00.159	1.312088	1.316484	1.301832
00:00:00.159	1.323810	1.311355	1.300366
00:00:00.159	1.328205	1.304029	1.284982
00:00:00.159	1.320879	1.314286	1.295238
00:00:00.159	1.291575	1.294505	1.289377
00:00:00.159	1.299634	1.300366	1.295238
00:00:00.160	1.288645	1.304762	1.300366
00:00:00.160	1.288645	1.317216	1.312821
00:00:00.161	1.293040	1.309158	1.300366
00:00:00.161	1.308425	1.301832	1.322344
00:00:00.161	1.339927	1.290842	1.322344
00:00:00.162	1.371429	1.280586	1.312821
00:00:00.162	1.330403	1.282051	1.312821
00:00:00.162	1.297436	1.303297	1.311355
00:00:00.163	1.308425	1.310623	1.311355
00:00:00.163	1.284249	1.304029	1.296703
00:00:00.163	1.260806	1.311355	1.295238
00:00:00.196	1.280586	1.309158	1.290842
00:00:00.196	1.301832	1.316484	1.290842
00:00:00.196	1.394139	1.329670	1.292308
00:00:00.197	1.363370	1.354579	1.289377
00:00:00.197	1.364835	1.333333	1.295971
00:00:00.197	1.347253	1.328938	1.306227
00:00:00.198	1.313553	1.322344	1.309158
00:00:00.199	1.291575	1.311355	1.299634
00:00:00.199	1.287179	1.319414	1.313553
00:00:00.199	1.304029	1.302564	1.313553
00:00:00.199	1.306227	1.292308	1.317216
00:00:00.200	1.306960	1.276190	1.317216
00:00:00.200	1.300366	1.274725	1.311355
00:00:00.200	1.310623	1.279853	1.309158
00:00:00.201	1.306960	1.277656	1.309158
00:00:00.201	1.305495	1.296703	1.304762
00:00:00.201	1.306227	1.317949	1.300366
00:00:00.202	1.306227	1.312088	1.297436
00:00:00.202	1.308425	1.312088	1.298168
00:00:00.202	1.312088	1.301832	1.294505
00:00:00.203	1.302564	1.273260	1.288645
00:00:00.203	1.311355	1.282784	1.298168
00:00:00.203	1.314286	1.279853	1.302564
00:00:00.204	1.302564	1.262271	1.300366
00:00:00.204	1.318681	1.266667	1.316484
00:00:00.205	1.312088	1.300366	1.306227
00:00:00.205	1.315018	1.333333	1.320879
00:00:00.205	1.307692	1.348718	1.312088
00:00:00.206	1.309890	1.344322	1.318681
00:00:00.206	1.300366	1.338462	1.303297
00:00:00.206	1.298901	1.353114	1.306227
00:00:00.207	1.300366	1.341392	1.310623
00:00:00.207	1.297436	1.313553	1.295971
00:00:00.207	1.317216	1.337729	1.306227
00:00:00.208	1.308425	1.335531	1.299634
00:00:00.208	1.305495	1.336996	1.295971
00:00:00.208	1.308425	1.316484	1.290842
00:00:00.209	1.300366	1.290842	1.292308
00:00:00.209	1.323810	1.289377	1.300366
00:00:00.210	1.334799	1.289377	1.297436
00:00:00.210	1.315751	1.293773	1.306960
00:00:00.210	1.315751	1.282051	1.309890
00:00:00.211	1.312088	1.287912	1.306960
00:00:00.211	1.304762	1.293773	1.314286
00:00:00.211	1.300366	1.291575	1.314286
00:00:00.212	1.300366	1.286447	1.315751
00:00:00.212	1.312088	1.342857	1.325275
00:00:00.212	1.308425	1.336996	1.309158
00:00:00.213	1.310623	1.318681	1.306960
00:00:00.213	1.312088	1.303297	1.300366
00:00:00.245	1.315018	1.279121	1.293040
00:00:00.246	1.311355	1.284982	1.291575
00:00:00.246	1.315018	1.293040	1.291575
00:00:00.246	1.314286	1.308425	1.288645
00:00:00.247	1.307692	1.308425	1.294505
00:00:00.247	1.314286	1.304029	1.293040
00:00:00.247	1.302564	1.311355	1.294505
00:00:00.248	1.298168	1.296703	1.303297
00:00:00.248	1.297436	1.287912	1.307692
00:00:00.249	1.305495	1.275458	1.310623
00:00:00.249	1.306960	1.270330	1.316484
00:00:00.249	1.321612	1.274725	1.328205
00:00:00.252	1.305495	1.257875	1.310623
00:00:00.252	1.309158	1.280586	1.316484
00:00:00.252	1.312821	1.303297	1.310623
00:00:00.252	1.305495	1.311355	1.306227
00:00:00.252	1.315018	1.315751	1.300366
00:00:00.252	1.309890	1.342857	1.294505
00:00:00.252	1.298168	1.339194	1.295971
00:00:00.252	1.308425	1.343590	1.290110
00:00:00.252	1.320879	1.346520	1.293773
00:00:00.253	1.316484	1.329670	1.298901
00:00:00.253	1.317949	1.309890	1.300366
00:00:00.255	1.308425	1.285714	1.290842
00:00:00.255	1.311355	1.270330	1.300366
00:00:00.255	1.299634	1.271795	1.298901
00:00:00.255	1.303297	1.288645	1.310623
00:00:00.255	1.313553	1.306960	1.315751
00:00:00.255	1.300366	1.311355	1.316484
00:00:00.256	1.310623	1.356044	1.322344
00:00:00.256	1.296703	1.341392	1.306227
00:00:00.256	1.310623	1.317216	1.308425
00:00:00.257	1.306227	1.317216	1.303297
00:00:00.257	1.303297	1.328938	1.304029
00:00:00.258	1.306960	1.303297	1.294505
00:00:00.258	1.304029	1.276190	1.293773
00:00:00.258	1.323077	1.281319	1.303297
00:00:00.259	1.318681	1.301099	1.289377
00:00:00.259	1.308425	1.312088	1.300366
00:00:00.259	1.309158	1.309158	1.302564
00:00:00.260	1.298901	1.289377	1.293040
00:00:00.260	1.304762	1.301832	1.307692
00:00:00.260	1.303297	1.299634	1.300366
00:00:00.261	1.311355	1.304029	1.310623
00:00:00.261	1.319414	1.301099	1.312821
00:00:00.261	1.307692	1.298901	1.315751
00:00:00.262	1.308425	1.290842	1.311355
00:00:00.262	1.308425	1.301832	1.316484
00:00:00.263	1.309158	1.309158	1.311355
00:00:00.263	1.306960	1.312821	1.306227
00:00:00.295	1.318681	1.327473	1.298901
00:00:00.295	1.300366	1.316484	1.286447
00:00:00.296	1.301099	1.330403	1.293773
00:00:00.296	1.293040	1.315018	1.299634
00:00:00.296	1.289377	1.279121	1.287179
00:00:00.297	1.312088	1.258608	1.287179
00:00:00.297	1.295971	1.246154	1.295238
00:00:00.298	1.301832	1.246154	1.298901
00:00:00.298	1.304029	1.261538	1.309158
00:00:00.298	1.334799	1.320879	1.312821
00:00:00.299	1.345055	1.346520	1.313553
00:00:00.299	1.343590	1.361905	1.326007
00:00:00.299	1.298901	1.338462	1.299634
00:00:00.300	1.320147	1.341392	1.303297
00:00:00.300	1.316484	1.328205	1.307692
00:00:00.300	1.309158	1.304762	1.309158
00:00:00.301	1.293773	1.305495	1.306227
00:00:00.301	1.282784	1.302564	1.293040
00:00:00.302	1.265201	1.298901	1.283516
00:00:00.302	1.276923	1.304029	1.287912
00:00:00.302	1.294505	1.303297	1.290842
00:00:00.303	1.310623	1.301099	1.287912
00:00:00.303	1.326740	1.296703	1.291575
00:00:00.303	1.348718	1.270330	1.284982
00:00:00.304	1.347253	1.293773	1.318681
00:00:00.304	1.317949	1.295238	1.317216
00:00:00.304	1.296703	1.302564	1.316484
00:00:00.305	1.310623	1.317949	1.314286
00:00:00.305	1.294505	1.309158	1.306227
00:00:00.305	1.295971	1.306227	1.315018
00:00:00.306	1.298901	1.302564	1.304029
00:00:00.306	1.309158	1.306227	1.305495
00:00:00.307	1.304029	1.310623	1.310623
00:00:00.307	1.292308	1.293773	1.298168
00:00:00.307	1.312821	1.284982	1.295238
00:00:00.308	1.313553	1.295971	1.296703
00:00:00.308	1.310623	1.296703	1.279853
00:00:00.308	1.331136	1.307692	1.297436
00:00:00.309	1.293773	1.299634	1.290110
00:00:00.309	1.281319	1.297436	1.296703
00:00:00.309	1.315018	1.295238	1.301832
00:00:00.310	1.312088	1.294505	1.309158
00:00:00.310	1.323810	1.298901	1.302564
00:00:00.310	1.317216	1.286447	1.301832
00:00:00.311	1.276923	1.288645	1.310623
00:00:00.311	1.204396	1.284982	1.304029
00:00:00.312	1.237363	1.292308	1.300366
00:00:00.312	1.320879	1.294505	1.309158
00:00:00.312	1.352381	1.275458	1.298168
00:00:00.315	1.341392	1.302564	1.306227
00:00:00.346	1.353114	1.327473	1.320879
00:00:00.346	1.333333	1.331868	1.307692
00:00:00.346	1.314286	1.338462	1.307692
00:00:00.346	1.303297	1.367033	1.319414
00:00:00.346	1.359707	1.380220	1.322344
00:00:00.348	1.409524	1.348718	1.290110
00:00:00.348	1.452747	1.320147	1.291575
00:00:00.348	1.439560	1.294505	1.297436
00:00:00.348	1.347253	1.279121	1.304762
00:00:00.348	1.285714	1.263004	1.310623
00:00:00.348	1.208791	1.240293	1.302564
00:00:00.351	1.224908	1.235897	1.310623
00:00:00.351	1.230037	1.243223	1.306227
00:00:00.351	1.182418	1.274725	1.271062
00:00:00.351	1.303297	1.327473	1.273993
00:00:00.351	1.353114	1.328938	1.268132
00:00:00.351	1.372161	1.328205	1.285714
00:00:00.351	1.367033	1.339927	1.361905
00:00:00.351	1.320879	1.328938	1.353114
00:00:00.352	1.282784	1.350916	1.379487
00:00:00.352	1.304762	1.342857	1.306227
00:00:00.352	1.307692	1.317949	1.293773
00:00:00.353	1.374359	1.315751	1.290110
00:00:00.353	1.376557	1.334799	1.283516
00:00:00.353	1.375092	1.414652	1.294505
00:00:00.354	1.310623	1.454212	1.297436
00:00:00.354	1.189744	1.448352	1.322344
00:00:00.354	1.121612	1.361172	1.317216
00:00:00.356	1.104762	1.265201	1.305495
00:00:00.356	1.218315	1.243956	1.307692
00:00:00.356	1.284982	1.224908	1.282051
00:00:00.356	1.378022	1.186081	1.290110
00:00:00.356	1.418315	1.124542	1.308425
00:00:00.357	1.421978	1.121612	1.307692
00:00:00.357	1.402198	1.167033	1.274725
00:00:00.357	1.317949	1.170696	1.255678
00:00:00.358	1.254945	1.225641	1.267399
00:00:00.358	1.284249	1.319414	1.293773
00:00:00.358	1.319414	1.352381	1.327473
00:00:00.359	1.315018	1.370696	1.357509
00:00:00.359	1.345055	1.356777	1.339194
00:00:00.359	1.320147	1.361905	1.321612
00:00:00.360	1.282051	1.370696	1.321612
00:00:00.360	1.285714	1.347985	1.307692
00:00:00.361	1.298168	1.310623	1.342125
00:00:00.361	1.361905	1.298901	1.343590
00:00:00.361	1.407326	1.343590	1.347253
00:00:00.362	1.417582	1.373626	1.311355
00:00:00.362	1.331136	1.356044	1.293040
00:00:00.362	1.242491	1.376557	1.273260
00:00:00.395	1.249084	1.326740	1.271062
00:00:00.395	1.263736	1.235165	1.261538
00:00:00.395	1.313553	1.234432	1.271062
00:00:00.396	1.339927	1.269597	1.271795
00:00:00.396	1.364103	1.284249	1.282051
00:00:00.396	1.356777	1.288645	1.290110
00:00:00.397	1.307692	1.304029	1.315018
00:00:00.397	1.246886	1.339194	1.309890
00:00:00.397	1.235165	1.376557	1.299634
00:00:00.398	1.208791	1.358974	1.290842
00:00:00.398	1.249084	1.340659	1.311355
00:00:00.398	1.259341	1.317949	1.312821
00:00:00.399	1.206593	1.323077	1.322344
00:00:00.399	1.259341	1.319414	1.322344
00:00:00.400	1.365568	1.387546	1.330403
00:00:00.400	1.387546	1.260806	1.315751
00:00:00.400	1.389744	1.100366	1.276190
00:00:00.401	1.421978	1.195604	1.283516
00:00:00.401	1.378022	1.283516	1.280586
00:00:00.401	1.359707	1.306227	1.297436
00:00:00.402	1.243223	1.279121	1.298168
00:00:00.402	1.109890	1.268864	1.282784
00:00:00.402	1.154579	1.239560	1.276923
00:00:00.403	1.270330	1.301832	1.287179
00:00:00.403	1.395604	1.345788	1.293773
00:00:00.403	1.501832	1.391209	1.315751
00:00:00.404	1.517949	1.487912	1.323810
00:00:00.404	1.401465	1.452747	1.309158
00:00:00.405	1.273993	1.388278	1.312088
00:00:00.405	1.197070	1.341392	1.307692
00:00:00.405	1.175092	1.326740	1.308425
00:00:00.406	1.254945	1.306227	1.299634
00:00:00.406	1.299634	1.304029	1.287179
00:00:00.406	1.303297	1.267399	1.287912
00:00:00.407	1.314286	1.221245	1.269597
00:00:00.408	1.301832	1.221978	1.256410
00:00:00.408	1.316484	1.277656	1.259341
00:00:00.408	1.310623	1.353114	1.268864
00:00:00.408	1.336996	1.442491	1.295238
00:00:00.408	1.349451	1.551648	1.318681
00:00:00.412	1.339194	1.575092	1.325275
00:00:00.412	1.331136	1.506960	1.329670
00:00:00.412	1.326007	1.336996	1.323077
00:00:00.412	1.334066	1.194139	1.334066
00:00:00.412	1.337729	1.198535	1.345055
00:00:00.412	1.323810	1.182418	1.358242
00:00:00.412	1.315018	1.065934	1.356777
00:00:00.412	1.321612	1.039560	1.347253
00:00:00.412	1.328205	1.123077	1.353846
00:00:00.412	1.332601	1.216850	1.347253
00:00:00.444	1.340659	1.309890	1.336996
00:00:00.447	1.309158	1.356777	1.315018
00:00:00.447	1.324542	1.315018	1.312821
00:00:00.447	1.327473	1.242491	1.304029
00:00:00.447	1.332601	1.306960	1.307692
00:00:00.447	1.252015	1.421978	1.309158
00:00:00.447	1.243956	1.323810	1.305495
00:00:00.447	1.275458	1.196337	1.314286
00:00:00.447	1.293773	1.113553	1.306227
00:00:00.447	1.334799	1.121612	1.309158
00:00:00.448	1.419048	1.171429	1.311355
00:00:00.448	1.432967	1.263004	1.312088
00:00:00.449	1.294505	1.282051	1.299634
00:00:00.449	1.136264	1.397802	1.284249
00:00:00.449	1.068132	1.600000	1.308425
00:00:00.450	1.174359	1.553846	1.312821
00:00:00.450	1.255678	1.515751	1.318681
00:00:00.450	1.326740	1.552381	1.329670
00:00:00.451	1.357509	1.382418	1.303297
00:00:00.451	1.358242	1.107692	1.302564
00:00:00.451	1.339927	1.008791	1.295971
00:00:00.452	1.327473	1.100366	1.289377
00:00:00.452	1.358242	1.219048	1.297436
00:00:00.453	1.375824	1.199267	1.291575
00:00:00.453	1.377289	1.101832	1.315751
00:00:00.453	1.248352	1.112821	1.291575
00:00:00.454	1.253480	1.301099	1.287179
00:00:00.454	1.331136	1.441026	1.309890
00:00:00.454	1.393407	1.518681	1.336996
00:00:00.455	1.436630	1.480586	1.321612
00:00:00.455	1.424908	1.402930	1.313553
00:00:00.455	1.354579	1.336264	1.297436
00:00:00.456	1.303297	1.294505	1.299634
00:00:00.456	1.216850	1.204396	1.276190
00:00:00.456	1.244689	1.311355	1.276190
00:00:00.457	1.293040	1.364103	1.266667
00:00:00.457	1.315018	1.310623	1.265934
00:00:00.458	1.347985	1.287912	1.273993
00:00:00.458	1.331868	1.285714	1.273260
00:00:00.458	1.317216	1.331868	1.284982
00:00:00.459	1.284982	1.259341	1.293773
00:00:00.459	1.256410	1.281319	1.303297
00:00:00.460	1.240293	1.327473	1.307692
00:00:00.460	1.268864	1.361905	1.315018
00:00:00.460	1.312088	1.430037	1.326007
00:00:00.460	1.318681	1.430769	1.320879
00:00:00.461	1.304762	1.479121	1.316484
00:00:00.461	1.290110	1.544322	1.325275
00:00:00.461	1.280586	1.579487	1.317949
00:00:00.462	1.270330	1.544322	1.321612
00:00:00.494	1.250549	1.295971	1.282051
00:00:00.494	1.316484	1.225641	1.285714
00:00:00.495	1.328938	1.232967	1.294505
00:00:00.495	1.290110	1.279121	1.283516
00:00:00.495	1.249817	1.326740	1.296703
00:00:00.496	1.301832	1.326007	1.297436
00:00:00.496	1.367766	1.340659	1.311355
00:00:00.497	1.417582	1.317216	1.300366
00:00:00.497	1.419048	1.267399	1.305495
00:00:00.497	1.374359	1.236630	1.309158
00:00:00.498	1.320879	1.235165	1.309158
00:00:00.498	1.325275	1.295238	1.334066
00:00:00.498	1.356777	1.301832	1.310623
00:00:00.499	1.336264	1.320879	1.304029
00:00:00.499	1.282784	1.325275	1.297436
00:00:00.499	1.254945	1.304029	1.309890
00:00:00.500	1.279853	1.326740	1.314286
00:00:00.500	1.276923	1.319414	1.298168
00:00:00.500	1.284249	1.304029	1.309158
00:00:00.501	1.231502	1.294505	1.302564
00:00:00.501	1.227839	1.284249	1.289377
00:00:00.502	1.252015	1.283516	1.284982
00:00:00.502	1.328938	1.260806	1.270330
00:00:00.502	1.400733	1.258608	1.293040
00:00:00.503	1.387546	1.247619	1.306227
00:00:00.504	1.323077	1.222711	1.305495
00:00:00.504	1.276190	1.232967	1.312821
00:00:00.505	1.304762	1.227106	1.303297
00:00:00.505	1.309158	1.256410	1.319414
00:00:00.505	1.307692	1.270330	1.317216
00:00:00.505	1.306227	1.287179	1.319414
00:00:00.505	1.315751	1.298901	1.317949
00:00:00.505	1.317216	1.323077	1.311355
00:00:00.507	1.312088	1.328938	1.316484
00:00:00.507	1.315018	1.341392	1.307692
00:00:00.507	1.312088	1.336264	1.293773
00:00:00.507	1.318681	1.345788	1.297436
00:00:00.507	1.314286	1.331868	1.287912
00:00:00.510	1.320879	1.318681	1.294505
00:00:00.510	1.312088	1.319414	1.292308
00:00:00.510	1.313553	1.306227	1.293040
00:00:00.510	1.308425	1.294505	1.293040
00:00:00.510	1.304762	1.295238	1.292308
00:00:00.510	1.320879	1.308425	1.303297
00:00:00.510	1.316484	1.290842	1.300366
00:00:00.510	1.331868	1.286447	1.323810
00:00:00.510	1.328205	1.290110	1.312088
00:00:00.511	1.295238	1.325275	1.314286
00:00:00.511	1.268132	1.333333	1.315751
00:00:00.512	1.284249	1.314286	1.305495
00:00:00.544	1.306227	1.311355	1.308425
00:00:00.544	1.334799	1.284982	1.298901
00:00:00.544	1.358242	1.254945	1.300366
00:00:00.545	1.352381	1.242491	1.296703
00:00:00.545	1.297436	1.280586	1.279121
00:00:00.546	1.236630	1.318681	1.290842
00:00:00.546	1.217582	1.310623	1.291575
00:00:00.546	1.247619	1.341392	1.295238
00:00:00.547	1.329670	1.374359	1.311355
00:00:00.547	1.346520	1.331136	1.300366
00:00:00.547	1.334799	1.314286	1.317949
00:00:00.548	1.312088	1.309158	1.317216
00:00:00.548	1.310623	1.311355	1.320879
00:00:00.548	1.303297	1.299634	1.313553
00:00:00.549	1.302564	1.265201	1.315018
00:00:00.549	1.325275	1.264469	1.315751
00:00:00.549	1.315018	1.265934	1.300366
00:00:00.550	1.295238	1.277656	1.309158
00:00:00.550	1.238095	1.288645	1.302564
00:00:00.551	1.276190	1.307692	1.290110
00:00:00.551	1.367033	1.339927	1.299634
00:00:00.551	1.413187	1.309158	1.290110
00:00:00.552	1.443956	1.303297	1.296703
00:00:00.552	1.406593	1.310623	1.298168
00:00:00.552	1.309890	1.312821	1.293040
00:00:00.553	1.241758	1.317216	1.310623
00:00:00.553	1.230769	1.295971	1.300366
00:00:00.553	1.244689	1.289377	1.304029
00:00:00.554	1.250549	1.278388	1.300366
00:00:00.554	1.263736	1.276923	1.310623
00:00:00.554	1.284982	1.265201	1.309158
00:00:00.555	1.323810	1.273260	1.321612
00:00:00.555	1.352381	1.290110	1.318681
00:00:00.556	1.350183	1.314286	1.313553
00:00:00.556	1.323077	1.325275	1.305495
00:00:00.556	1.231502	1.301832	1.298901
00:00:00.557	1.271795	1.289377	1.284249
00:00:00.557	1.323810	1.284982	1.286447
00:00:00.557	1.371429	1.289377	1.293773
00:00:00.558	1.363370	1.293040	1.286447
00:00:00.558	1.372161	1.296703	1.298901
00:00:00.558	1.322344	1.291575	1.300366
00:00:00.559	1.298901	1.289377	1.304762
00:00:00.559	1.350183	1.292308	1.305495
00:00:00.560	1.377289	1.302564	1.306960
00:00:00.560	1.315751	1.328938	1.312821
00:00:00.560	1.263004	1.384615	1.305495
00:00:00.561	1.236630	1.385348	1.307692
00:00:00.561	1.243956	1.326007	1.300366
00:00:00.561	1.246154	1.268132	1.279853
00:00:00.593	1.299634	1.295971	1.308425
00:00:00.594	1.295971	1.293040	1.321612
00:00:00.594	1.286447	1.276923	1.310623
00:00:00.595	1.273993	1.259341	1.295238
00:00:00.595	1.273993	1.287912	1.300366
00:00:00.595	1.307692	1.322344	1.306960
00:00:00.596	1.315018	1.342857	1.297436
00:00:00.596	1.345788	1.349451	1.306227
00:00:00.596	1.334066	1.315018	1.297436
00:00:00.597	1.328938	1.305495	1.307692
00:00:00.597	1.351648	1.316484	1.310623
00:00:00.597	1.367766	1.307692	1.309890
00:00:00.598	1.321612	1.288645	1.312088
00:00:00.598	1.285714	1.281319	1.323810
00:00:00.598	1.263736	1.257875	1.308425
00:00:00.599	1.301832	1.282051	1.314286
00:00:00.599	1.309890	1.282784	1.301832
00:00:00.600	1.337729	1.273993	1.300366
00:00:00.600	1.339927	1.276190	1.291575
00:00:00.600	1.333333	1.309158	1.293040
00:00:00.602	1.298901	1.354579	1.293773
00:00:00.602	1.272527	1.373626	1.300366
00:00:00.602	1.273993	1.352381	1.298168
00:00:00.604	1.318681	1.345055	1.294505
00:00:00.604	1.317216	1.339194	1.301832
00:00:00.604	1.308425	1.316484	1.306227
00:00:00.604	1.328205	1.276190	1.305495
00:00:00.604	1.317216	1.232967	1.311355
00:00:00.604	1.300366	1.230037	1.300366
00:00:00.604	1.310623	1.270330	1.308425
00:00:00.604	1.318681	1.274725	1.307692
00:00:00.607	1.317949	1.273993	1.308425
00:00:00.607	1.264469	1.284249	1.305495
00:00:00.607	1.238828	1.298901	1.307692
00:00:00.607	1.293773	1.320147	1.306227
00:00:00.607	1.361905	1.354579	1.304029
00:00:00.607	1.413919	1.364103	1.299634
00:00:00.607	1.401465	1.385348	1.295238
00:00:00.607	1.347253	1.349451	1.294505
00:00:00.607	1.292308	1.278388	1.296703
00:00:00.608	1.262271	1.221245	1.296703
00:00:00.608	1.271795	1.197802	1.309158
00:00:00.609	1.294505	1.241758	1.308425
00:00:00.609	1.298901	1.284982	1.305495
00:00:00.609	1.302564	1.323810	1.311355
00:00:00.610	1.315018	1.384615	1.312088
00:00:00.610	1.301099	1.389011	1.306227
00:00:00.610	1.309890	1.376557	1.309890
00:00:00.611	1.317216	1.336264	1.312088
00:00:00.611	1.314286	1.301832	1.309890
00:00:00.643	1.298168	1.286447	1.298168
00:00:00.644	1.285714	1.309158	1.293773
00:00:00.644	1.296703	1.353114	1.291575
00:00:00.644	1.304029	1.360440	1.298901
00:00:00.645	1.324542	1.328938	1.302564
00:00:00.645	1.315751	1.243223	1.288645
00:00:00.645	1.308425	1.211722	1.287912
00:00:00.646	1.309890	1.231502	1.296703
00:00:00.646	1.293040	1.257143	1.290842
00:00:00.646	1.313553	1.298901	1.306960
00:00:00.647	1.309158	1.294505	1.301832
00:00:00.647	1.308425	1.314286	1.306227
00:00:00.648	1.313553	1.320879	1.313553
00:00:00.648	1.287179	1.282051	1.305495
00:00:00.648	1.298901	1.296703	1.316484
00:00:00.649	1.295971	1.291575	1.310623
00:00:00.649	1.303297	1.304762	1.310623
00:00:00.649	1.309890	1.305495	1.306960
00:00:00.650	1.309158	1.308425	1.302564
00:00:00.650	1.318681	1.312088	1.295238
00:00:00.650	1.328938	1.360440	1.293040
00:00:00.651	1.326740	1.359707	1.295238
00:00:00.651	1.320147	1.345055	1.295971
00:00:00.651	1.309158	1.320879	1.296703
00:00:00.652	1.299634	1.293040	1.294505
00:00:00.652	1.328205	1.310623	1.311355
00:00:00.653	1.329670	1.305495	1.298901
00:00:00.653	1.326007	1.292308	1.305495
00:00:00.653	1.266667	1.273993	1.312088
00:00:00.654	1.262271	1.268864	1.315018
00:00:00.654	1.323810	1.290842	1.320147
00:00:00.654	1.360440	1.255678	1.309890
00:00:00.655	1.380952	1.263736	1.300366
00:00:00.655	1.380220	1.293040	1.307692
00:00:00.655	1.311355	1.306227	1.311355
00:00:00.656	1.208059	1.306227	1.299634
00:00:00.656	1.175824	1.319414	1.292308
00:00:00.656	1.211722	1.334066	1.292308
00:00:00.657	1.282784	1.336996	1.283516
00:00:00.657	1.359707	1.363370	1.293773
00:00:00.658	1.359707	1.356777	1.296703
00:00:00.658	1.323810	1.360440	1.300366
00:00:00.658	1.279853	1.336264	1.296703
00:00:00.659	1.302564	1.304762	1.309158
00:00:00.659	1.331136	1.310623	1.309158
00:00:00.659	1.323077	1.279121	1.307692
00:00:00.660	1.325275	1.268132	1.318681
00:00:00.660	1.328205	1.271062	1.309158
00:00:00.660	1.306960	1.270330	1.317216
00:00:00.661	1.312821	1.287179	1.316484
00:00:00.693	1.314286	1.282051	1.312088
00:00:00.693	1.313553	1.265934	1.300366
00:00:00.694	1.309890	1.268864	1.292308
00:00:00.695	1.298168	1.278388	1.289377
00:00:00.695	1.312821	1.297436	1.295971
00:00:00.695	1.275458	1.312088	1.296703
00:00:00.695	1.259341	1.321612	1.293773
00:00:00.695	1.285714	1.335531	1.290842
00:00:00.697	1.326740	1.336996	1.293773
00:00:00.697	1.370696	1.333333	1.301099
00:00:00.698	1.384615	1.326740	1.308425
00:00:00.698	1.379487	1.319414	1.306227
00:00:00.698	1.331136	1.314286	1.303297
00:00:00.698	1.300366	1.342125	1.317216
00:00:00.698	1.260806	1.469597	1.321612
00:00:00.698	1.268864	1.446154	1.316484
00:00:00.700	1.290110	1.306960	1.299634
00:00:00.700	1.291575	1.191209	1.303297
00:00:00.700	1.295238	1.156777	1.301832
00:00:00.701	1.290110	1.154579	1.285714
00:00:00.704	1.309158	1.187546	1.295971
00:00:00.704	1.312821	1.219048	1.291575
00:00:00.704	1.304029	1.282051	1.290842
00:00:00.704	1.309158	1.365568	1.292308
00:00:00.704	1.303297	1.375824	1.293773
00:00:00.704	1.317216	1.345788	1.300366
00:00:00.704	1.321612	1.358242	1.317216
00:00:00.704	1.312088	1.345055	1.315018
00:00:00.704	1.315751	1.320147	1.315018
00:00:00.704	1.307692	1.286447	1.313553
00:00:00.704	1.307692	1.281319	1.322344
00:00:00.704	1.315018	1.299634	1.316484
00:00:00.704	1.298168	1.312821	1.308425
00:00:00.705	1.320879	1.301832	1.311355
00:00:00.706	1.315018	1.273993	1.299634
00:00:00.706	1.321612	1.279853	1.307692
00:00:00.706	1.307692	1.265934	1.301099
00:00:00.706	1.291575	1.309158	1.293040
00:00:00.707	1.299634	1.350916	1.287179
00:00:00.707	1.302564	1.367033	1.284249
00:00:00.707	1.323077	1.385348	1.298901
00:00:00.708	1.312088	1.372894	1.299634
00:00:00.708	1.319414	1.371429	1.309890
00:00:00.708	1.338462	1.334799	1.308425
00:00:00.709	1.328205	1.284982	1.298901
00:00:00.709	1.311355	1.310623	1.318681
00:00:00.709	1.301832	1.286447	1.307692
00:00:00.710	1.306227	1.275458	1.317949
00:00:00.710	1.308425	1.265201	1.312088
00:00:00.711	1.300366	1.274725	1.309158
00:00:00.743	1.303297	1.277656	1.307692
00:00:00.743	1.304762	1.272527	1.304762
00:00:00.743	1.304762	1.268132	1.298168
00:00:00.744	1.312821	1.283516	1.298901
00:00:00.744	1.312088	1.291575	1.278388
00:00:00.744	1.319414	1.319414	1.290110
00:00:00.745	1.312088	1.342125	1.282051
00:00:00.745	1.304762	1.342857	1.296703
00:00:00.746	1.306227	1.312088	1.298168
00:00:00.746	1.301832	1.280586	1.304029
