timestamp	ch1	ch2	ch3
00:00:00.000	1.303297	1.285714	1.306960
00:00:00.000	1.309158	1.301099	1.318681
00:00:00.000	1.309158	1.297436	1.309158
00:00:00.000	1.318681	1.309890	1.312088
00:00:00.002	1.315751	1.315018	1.309158
00:00:00.002	1.300366	1.299634	1.290110
00:00:00.002	1.298901	1.295238	1.292308
00:00:00.003	1.312088	1.290842	1.304029
00:00:00.003	1.319414	1.313553	1.302564
00:00:00.003	1.309890	1.320879	1.300366
00:00:00.003	1.313553	1.335531	1.300366
00:00:00.003	1.302564	1.323077	1.290842
00:00:00.003	1.315751	1.312821	1.303297
00:00:00.004	1.312088	1.300366	1.300366
00:00:00.004	1.317216	1.304762	1.314286
00:00:00.004	1.309158	1.310623	1.312088
00:00:00.005	1.304762	1.315018	1.317216
00:00:00.005	1.290842	1.290842	1.315751
00:00:00.006	1.295971	1.268132	1.308425
00:00:00.006	1.296703	1.287912	1.314286
00:00:00.006	1.317949	1.307692	1.319414
00:00:00.007	1.312088	1.285714	1.294505
00:00:00.007	1.323810	1.304029	1.297436
00:00:00.008	1.315018	1.315751	1.288645
00:00:00.008	1.308425	1.313553	1.284982
00:00:00.008	1.308425	1.328205	1.293040
00:00:00.008	1.319414	1.333333	1.304029
00:00:00.009	1.311355	1.313553	1.298168
00:00:00.009	1.307692	1.300366	1.292308
00:00:00.009	1.311355	1.295971	1.290842
00:00:00.010	1.316484	1.288645	1.309890
00:00:00.010	1.296703	1.295238	1.311355
00:00:00.011	1.282784	1.285714	1.315751
00:00:00.011	1.302564	1.288645	1.319414
00:00:00.011	1.296703	1.272527	1.304762
00:00:00.012	1.309158	1.289377	1.320147
00:00:00.012	1.309890	1.287912	1.309890
00:00:00.012	1.300366	1.304762	1.312088
00:00:00.013	1.298168	1.312088	1.306227
00:00:00.013	1.303297	1.307692	1.293773
00:00:00.013	1.321612	1.312088	1.299634
00:00:00.014	1.325275	1.326740	1.299634
00:00:00.014	1.313553	1.331868	1.290110
00:00:00.014	1.314286	1.343590	1.291575
00:00:00.015	1.306227	1.328938	1.290110
00:00:00.015	1.322344	1.329670	1.300366
00:00:00.016	1.319414	1.300366	1.289377
00:00:00.016	1.306227	1.298901	1.303297
00:00:00.016	1.312088	1.307692	1.314286
00:00:00.017	1.317949	1.304029	1.317216
00:00:00.049	1.307692	1.293773	1.320879
00:00:00.049	1.296703	1.289377	1.312821
00:00:00.050	1.283516	1.258608	1.306960
00:00:00.050	1.298901	1.256410	1.296703
00:00:00.050	1.326740	1.239560	1.273993
00:00:00.051	1.321612	1.243956	1.275458
00:00:00.051	1.315751	1.285714	1.279853
00:00:00.051	1.298168	1.312821	1.283516
00:00:00.052	1.307692	1.348718	1.288645
00:00:00.052	1.320147	1.385348	1.284982
00:00:00.052	1.312088	1.393407	1.293040
00:00:00.053	1.315018	1.406593	1.305495
00:00:00.053	1.304029	1.350916	1.295238
00:00:00.053	1.312088	1.333333	1.311355
00:00:00.054	1.297436	1.326007	1.315018
00:00:00.054	1.296703	1.295238	1.317949
00:00:00.055	1.293773	1.284982	1.321612
00:00:00.055	1.301832	1.265934	1.308425
00:00:00.055	1.304029	1.246886	1.314286
00:00:00.056	1.314286	1.232967	1.312088
00:00:00.056	1.326740	1.253480	1.302564
00:00:00.056	1.349451	1.276923	1.312088
00:00:00.057	1.339194	1.279853	1.306960
00:00:00.057	1.329670	1.287912	1.295238
00:00:00.057	1.315751	1.306960	1.298168
00:00:00.058	1.315018	1.326740	1.304029
00:00:00.058	1.300366	1.328938	1.276923
00:00:00.059	1.306227	1.349451	1.287179
00:00:00.059	1.301832	1.353114	1.282051
00:00:00.059	1.304029	1.341392	1.299634
00:00:00.061	1.288645	1.311355	1.298168
00:00:00.061	1.265201	1.289377	1.303297
00:00:00.061	1.312088	1.304029	1.326740
00:00:00.062	1.309158	1.287912	1.304762
00:00:00.062	1.306960	1.281319	1.311355
00:00:00.062	1.317216	1.283516	1.313553
00:00:00.063	1.306227	1.269597	1.309158
00:00:00.063	1.320147	1.284982	1.312088
00:00:00.063	1.326740	1.282051	1.292308
00:00:00.063	1.271062	1.287912	1.295971
00:00:00.063	1.276923	1.308425	1.307692
00:00:00.063	1.303297	1.310623	1.293040
00:00:00.066	1.309890	1.325275	1.282784
00:00:00.066	1.317216	1.345055	1.297436
00:00:00.066	1.323810	1.339927	1.298901
00:00:00.066	1.315018	1.323077	1.299634
00:00:00.066	1.315751	1.314286	1.296703
00:00:00.066	1.314286	1.300366	1.300366
00:00:00.066	1.317216	1.301099	1.315751
00:00:00.066	1.312088	1.291575	1.304762
00:00:00.100	1.307692	1.290842	1.320147
00:00:00.100	1.315018	1.293773	1.314286
00:00:00.100	1.317949	1.296703	1.317216
00:00:00.101	1.328205	1.282051	1.314286
00:00:00.101	1.312088	1.246154	1.314286
00:00:00.101	1.314286	1.239560	1.310623
00:00:00.101	1.315751	1.278388	1.300366
00:00:00.101	1.302564	1.307692	1.293773
00:00:00.101	1.300366	1.332601	1.292308
00:00:00.102	1.306960	1.334799	1.295238
00:00:00.102	1.306227	1.335531	1.290110
00:00:00.102	1.317216	1.378755	1.303297
00:00:00.103	1.309158	1.371429	1.293040
00:00:00.103	1.304762	1.340659	1.309890
00:00:00.104	1.306227	1.337729	1.307692
00:00:00.104	1.305495	1.342125	1.315751
00:00:00.104	1.303297	1.302564	1.310623
00:00:00.105	1.307692	1.260806	1.313553
00:00:00.105	1.305495	1.252015	1.303297
00:00:00.105	1.310623	1.270330	1.312821
00:00:00.106	1.306960	1.268132	1.312821
00:00:00.106	1.305495	1.279853	1.298168
00:00:00.106	1.309158	1.346520	1.307692
00:00:00.107	1.320879	1.333333	1.300366
00:00:00.107	1.306960	1.303297	1.293040
00:00:00.107	1.300366	1.272527	1.289377
00:00:00.108	1.299634	1.241026	1.290842
00:00:00.108	1.298901	1.235165	1.290110
00:00:00.109	1.312821	1.273993	1.294505
00:00:00.109	1.314286	1.331136	1.295238
00:00:00.109	1.317949	1.355311	1.300366
00:00:00.110	1.323810	1.343590	1.312088
00:00:00.110	1.321612	1.324542	1.316484
00:00:00.110	1.317949	1.312821	1.307692
00:00:00.111	1.299634	1.291575	1.305495
00:00:00.111	1.306227	1.301099	1.309890
00:00:00.112	1.300366	1.293040	1.300366
00:00:00.112	1.306227	1.318681	1.309890
00:00:00.112	1.294505	1.323810	1.305495
00:00:00.113	1.300366	1.331868	1.306227
00:00:00.113	1.297436	1.318681	1.293773
00:00:00.113	1.299634	1.323810	1.291575
00:00:00.114	1.317949	1.337729	1.293040
00:00:00.114	1.324542	1.309890	1.288645
00:00:00.114	1.322344	1.290842	1.291575
00:00:00.115	1.315018	1.273260	1.295238
00:00:00.115	1.317949	1.258608	1.306960
00:00:00.115	1.312821	1.269597	1.309158
00:00:00.116	1.306227	1.295238	1.306960
00:00:00.116	1.293040	1.308425	1.313553
00:00:00.148	1.298901	1.322344	1.319414
00:00:00.149	1.312088	1.326740	1.314286
00:00:00.149	1.295971	1.306960	1.307692
00:00:00.149	1.304029	1.312088	1.323077
00:00:00.150	1.306227	1.306227	1.305495
00:00:00.150	1.294505	1.304029	1.304029
00:00:00.150	1.309890	1.297436	1.299634
00:00:00.151	1.300366	1.292308	1.289377
00:00:00.151	1.300366	1.307692	1.292308
00:00:00.151	1.317949	1.319414	1.284249
00:00:00.152	1.318681	1.303297	1.279121
00:00:00.153	1.348718	1.311355	1.298901
00:00:00.153	1.332601	1.309158	1.296703
00:00:00.153	1.320879	1.300366	1.300366
00:00:00.153	1.325275	1.297436	1.306227
00:00:00.154	1.308425	1.273993	1.303297
00:00:00.154	1.308425	1.286447	1.304762
00:00:00.154	1.304029	1.301832	1.312088
00:00:00.155	1.299634	1.305495	1.303297
00:00:00.155	1.310623	1.307692	1.317949
00:00:00.155	1.312821	1.292308	1.314286
00:00:00.156	1.321612	1.297436	1.311355
00:00:00.156	1.318681	1.295238	1.299634
00:00:00.160	1.325275	1.304762	1.298901
00:00:00.160	1.298168	1.318681	1.305495
00:00:00.160	1.286447	1.341392	1.298901
00:00:00.160	1.254945	1.339194	1.291575
00:00:00.160	1.257875	1.340659	1.290110
00:00:00.160	1.279121	1.328205	1.298168
00:00:00.160	1.257143	1.317216	1.295971
00:00:00.160	1.283516	1.301832	1.295971
00:00:00.160	1.345055	1.298901	1.313553
00:00:00.160	1.419780	1.281319	1.306227
00:00:00.160	1.345788	1.282784	1.317216
00:00:00.160	1.312821	1.282784	1.329670
00:00:00.162	1.320147	1.287179	1.312088
00:00:00.162	1.329670	1.284249	1.309158
00:00:00.162	1.316484	1.305495	1.315018
00:00:00.162	1.285714	1.312821	1.304029
00:00:00.162	1.299634	1.315018	1.299634
00:00:00.163	1.310623	1.315018	1.304762
00:00:00.163	1.342125	1.302564	1.298168
00:00:00.163	1.389011	1.304762	1.297436
00:00:00.165	1.336264	1.309890	1.293040
00:00:00.165	1.300366	1.295238	1.276923
00:00:00.165	1.276923	1.298168	1.294505
00:00:00.165	1.288645	1.309890	1.299634
00:00:00.165	1.305495	1.325275	1.309158
00:00:00.165	1.306227	1.334799	1.310623
00:00:00.166	1.300366	1.320147	1.310623
00:00:00.198	1.316484	1.323810	1.339927
00:00:00.198	1.301832	1.304029	1.323810
00:00:00.199	1.294505	1.295971	1.312821
00:00:00.199	1.302564	1.300366	1.320147
00:00:00.199	1.297436	1.280586	1.309158
00:00:00.200	1.311355	1.298168	1.313553
00:00:00.200	1.308425	1.304029	1.290842
00:00:00.201	1.291575	1.298901	1.279121
00:00:00.201	1.305495	1.302564	1.283516
00:00:00.201	1.322344	1.315751	1.288645
00:00:00.202	1.318681	1.331136	1.290842
00:00:00.202	1.314286	1.339194	1.275458
00:00:00.202	1.296703	1.334066	1.260806
00:00:00.203	1.308425	1.321612	1.303297
00:00:00.203	1.300366	1.300366	1.300366
00:00:00.203	1.295971	1.301099	1.309158
00:00:00.204	1.304029	1.312088	1.305495
00:00:00.204	1.310623	1.296703	1.304762
00:00:00.204	1.356777	1.306960	1.309890
00:00:00.205	1.356777	1.306227	1.304762
00:00:00.205	1.362637	1.295971	1.299634
00:00:00.206	1.353114	1.284249	1.302564
00:00:00.206	1.333333	1.296703	1.322344
00:00:00.206	1.288645	1.312088	1.343590
00:00:00.207	1.246886	1.301832	1.315751
00:00:00.207	1.162637	1.288645	1.298168
00:00:00.207	1.225641	1.306227	1.304029
00:00:00.208	1.293040	1.312821	1.308425
00:00:00.208	1.340659	1.308425	1.309158
00:00:00.208	1.366300	1.313553	1.299634
00:00:00.209	1.370696	1.303297	1.290110
00:00:00.209	1.273993	1.306227	1.299634
00:00:00.209	1.241758	1.306227	1.312821
00:00:00.210	1.269597	1.295238	1.315018
00:00:00.210	1.315018	1.283516	1.315018
00:00:00.211	1.376557	1.260073	1.305495
00:00:00.211	1.420513	1.284982	1.315018
00:00:00.211	1.435165	1.290110	1.306227
00:00:00.212	1.408791	1.294505	1.297436
00:00:00.212	1.323810	1.301832	1.306227
00:00:00.212	1.261538	1.305495	1.303297
00:00:00.213	1.243223	1.320147	1.304762
00:00:00.213	1.221978	1.317216	1.298168
00:00:00.213	1.287179	1.295971	1.285714
00:00:00.214	1.336996	1.293040	1.279121
00:00:00.214	1.315751	1.295971	1.282051
00:00:00.214	1.280586	1.299634	1.291575
00:00:00.215	1.284249	1.305495	1.295238
00:00:00.215	1.295238	1.287179	1.283516
00:00:00.216	1.326007	1.287179	1.283516
00:00:00.249	1.324542	1.279853	1.294505
00:00:00.249	1.295971	1.282784	1.312821
00:00:00.249	1.274725	1.294505	1.336996
00:00:00.249	1.257143	1.285714	1.306960
00:00:00.249	1.273993	1.288645	1.260073
00:00:00.250	1.246154	1.290842	1.257875
00:00:00.251	1.198535	1.304762	1.288645
00:00:00.251	1.314286	1.316484	1.343590
00:00:00.251	1.397070	1.316484	1.346520
00:00:00.251	1.416117	1.305495	1.355311
00:00:00.251	1.430769	1.309890	1.279853
00:00:00.254	1.438828	1.309890	1.253480
00:00:00.254	1.405861	1.314286	1.293040
00:00:00.254	1.297436	1.325275	1.325275
00:00:00.254	1.161905	1.332601	1.359707
00:00:00.254	1.175092	1.333333	1.361905
00:00:00.254	1.179487	1.306960	1.370696
00:00:00.255	1.145055	1.284982	1.329670
00:00:00.255	1.216117	1.279853	1.301832
00:00:00.255	1.361905	1.264469	1.279121
00:00:00.255	1.459341	1.267399	1.284982
00:00:00.255	1.545788	1.312821	1.288645
00:00:00.258	1.533333	1.336264	1.295971
00:00:00.258	1.429304	1.312088	1.298901
00:00:00.258	1.318681	1.332601	1.301832
00:00:00.258	1.251282	1.334066	1.293773
00:00:00.258	1.212454	1.342125	1.280586
00:00:00.258	1.191941	1.342857	1.298168
00:00:00.258	1.218315	1.322344	1.290110
00:00:00.258	1.245421	1.304029	1.287912
00:00:00.258	1.197802	1.297436	1.282784
00:00:00.259	1.268864	1.292308	1.293040
00:00:00.259	1.354579	1.303297	1.304762
00:00:00.260	1.407326	1.366300	1.318681
00:00:00.260	1.428571	1.426374	1.320879
00:00:00.260	1.407326	1.427106	1.305495
00:00:00.261	1.326007	1.366300	1.298901
00:00:00.261	1.250549	1.294505	1.299634
00:00:00.261	1.214652	1.253480	1.308425
00:00:00.262	1.244689	1.213187	1.310623
00:00:00.262	1.299634	1.197070	1.299634
00:00:00.262	1.350916	1.213187	1.315018
00:00:00.263	1.340659	1.207326	1.303297
00:00:00.263	1.316484	1.226374	1.300366
00:00:00.263	1.304762	1.235897	1.287179
00:00:00.264	1.302564	1.258608	1.278388
00:00:00.264	1.319414	1.301832	1.274725
00:00:00.265	1.261538	1.328205	1.298168
00:00:00.265	1.309890	1.335531	1.309890
00:00:00.265	1.359707	1.310623	1.307692
00:00:00.297	1.364835	1.306960	1.304029
00:00:00.298	1.334799	1.252747	1.295971
00:00:00.298	1.322344	1.301832	1.306960
00:00:00.299	1.320879	1.392674	1.319414
00:00:00.299	1.296703	1.343590	1.326007
00:00:00.299	1.213187	1.306960	1.319414
00:00:00.300	1.245421	1.394139	1.302564
00:00:00.301	1.298901	1.443956	1.285714
00:00:00.301	1.320147	1.461538	1.285714
00:00:00.301	1.370696	1.531136	1.327473
00:00:00.301	1.353846	1.424176	1.279121
00:00:00.301	1.344322	1.268864	1.260073
00:00:00.302	1.306227	1.189011	1.261538
00:00:00.302	1.196337	1.197070	1.305495
00:00:00.302	1.188278	1.140659	1.377289
00:00:00.303	1.230769	1.085714	1.373626
00:00:00.303	1.317216	1.046154	1.336996
00:00:00.304	1.334066	1.087179	1.287179
00:00:00.304	1.363370	1.263736	1.288645
00:00:00.304	1.352381	1.413919	1.300366
00:00:00.305	1.378755	1.491575	1.316484
00:00:00.305	1.375092	1.487179	1.291575
00:00:00.305	1.313553	1.542125	1.317949
00:00:00.306	1.216117	1.496703	1.305495
00:00:00.306	1.216850	1.415385	1.300366
00:00:00.306	1.271795	1.362637	1.297436
00:00:00.307	1.397070	1.285714	1.299634
00:00:00.307	1.406593	1.234432	1.306227
00:00:00.307	1.367766	1.163370	1.291575
00:00:00.308	1.324542	1.202198	1.291575
00:00:00.308	1.298901	1.195604	1.292308
00:00:00.309	1.266667	1.213919	1.293040
00:00:00.309	1.276923	1.257875	1.308425
00:00:00.309	1.317949	1.327473	1.307692
00:00:00.310	1.313553	1.345055	1.312088
00:00:00.310	1.320879	1.378022	1.323077
00:00:00.310	1.309158	1.432967	1.320879
00:00:00.311	1.290842	1.421978	1.314286
00:00:00.311	1.295238	1.337729	1.304029
00:00:00.311	1.287912	1.248352	1.290110
00:00:00.312	1.367033	1.345788	1.309890
00:00:00.312	1.347253	1.416117	1.325275
00:00:00.312	1.290842	1.384615	1.331136
00:00:00.313	1.265201	1.158242	1.297436
00:00:00.313	1.264469	0.978755	1.267399
00:00:00.315	1.339927	1.107692	1.272527
00:00:00.315	1.336996	1.321612	1.288645
00:00:00.315	1.316484	1.419780	1.289377
00:00:00.315	1.417582	1.268864	1.317949
00:00:00.315	1.371429	1.078388	1.278388
00:00:00.347	1.276923	1.205128	1.253480
00:00:00.348	1.233700	1.456410	1.260073
00:00:00.349	1.226374	1.376557	1.303297
00:00:00.349	1.254212	1.191209	1.356044
00:00:00.350	1.309890	1.084249	1.340659
00:00:00.350	1.265201	1.126007	1.281319
00:00:00.350	1.288645	1.208059	1.264469
00:00:00.350	1.320879	1.165568	1.267399
00:00:00.350	1.254945	1.098901	1.231502
00:00:00.350	1.290842	1.197802	1.312821
00:00:00.353	1.349451	1.397070	1.381685
00:00:00.353	1.403663	1.563370	1.423443
00:00:00.353	1.403663	1.524542	1.376557
00:00:00.353	1.354579	1.373626	1.336264
00:00:00.353	1.271062	1.376557	1.323810
00:00:00.353	1.240293	1.416850	1.276923
00:00:00.353	1.235897	1.373626	1.266667
00:00:00.353	1.304762	1.326007	1.295238
00:00:00.354	1.310623	1.253480	1.289377
00:00:00.354	1.309890	1.304762	1.308425
00:00:00.354	1.340659	1.416117	1.310623
00:00:00.355	1.339927	1.475458	1.298901
00:00:00.355	1.328938	1.416850	1.295238
00:00:00.355	1.317949	1.356044	1.299634
00:00:00.357	1.319414	1.410989	1.291575
00:00:00.357	1.321612	1.429304	1.299634
00:00:00.357	1.293040	1.407326	1.291575
00:00:00.357	1.301832	1.450549	1.304762
00:00:00.357	1.294505	1.448352	1.298168
00:00:00.358	1.306227	1.427839	1.296703
00:00:00.358	1.312088	1.439560	1.288645
00:00:00.358	1.299634	1.413919	1.280586
00:00:00.359	1.316484	1.413919	1.298901
00:00:00.359	1.317216	1.356777	1.299634
00:00:00.359	1.320147	1.296703	1.306227
00:00:00.360	1.316484	1.273260	1.314286
00:00:00.360	1.312088	1.227839	1.315751
00:00:00.360	1.312088	1.197802	1.317949
00:00:00.361	1.308425	1.213187	1.315018
00:00:00.361	1.311355	1.252747	1.315751
00:00:00.361	1.304029	1.285714	1.306960
00:00:00.362	1.315751	1.298901	1.306227
00:00:00.362	1.300366	1.271062	1.291575
00:00:00.363	1.313553	1.285714	1.300366
00:00:00.363	1.314286	1.285714	1.295238
00:00:00.363	1.305495	1.284249	1.300366
00:00:00.364	1.320147	1.285714	1.298901
00:00:00.364	1.309890	1.280586	1.293040
00:00:00.364	1.311355	1.301099	1.309158
00:00:00.365	1.316484	1.311355	1.310623
00:00:00.397	1.308425	1.304762	1.309890
00:00:00.397	1.309158	1.303297	1.320879
00:00:00.398	1.309890	1.290110	1.320879
00:00:00.398	1.305495	1.279853	1.312088
00:00:00.398	1.296703	1.276190	1.303297
00:00:00.399	1.315751	1.299634	1.307692
00:00:00.399	1.312088	1.296703	1.312088
00:00:00.399	1.317216	1.291575	1.306227
00:00:00.400	1.304029	1.282051	1.287179
00:00:00.400	1.313553	1.305495	1.297436
00:00:00.400	1.312088	1.304029	1.292308
00:00:00.401	1.315751	1.297436	1.297436
00:00:00.401	1.316484	1.290110	1.295971
00:00:00.402	1.312088	1.278388	1.294505
00:00:00.402	1.303297	1.273993	1.298901
00:00:00.402	1.312088	1.291575	1.300366
00:00:00.403	1.312088	1.283516	1.297436
00:00:00.403	1.316484	1.293040	1.317949
00:00:00.403	1.317216	1.289377	1.309158
00:00:00.404	1.315751	1.290110	1.322344
00:00:00.404	1.311355	1.273260	1.317216
00:00:00.405	1.298168	1.273260	1.304762
00:00:00.405	1.295238	1.318681	1.298168
00:00:00.405	1.298168	1.359707	1.306227
00:00:00.405	1.284982	1.358242	1.300366
00:00:00.406	1.300366	1.340659	1.305495
00:00:00.406	1.312088	1.301099	1.295238
00:00:00.407	1.326007	1.287179	1.300366
00:00:00.407	1.323077	1.265934	1.290842
00:00:00.407	1.318681	1.243223	1.293040
00:00:00.409	1.317949	1.227106	1.290842
00:00:00.409	1.308425	1.224176	1.285714
00:00:00.409	1.295971	1.238828	1.290842
00:00:00.409	1.306960	1.303297	1.318681
00:00:00.409	1.306227	1.341392	1.318681
00:00:00.409	1.304029	1.336264	1.320147
00:00:00.410	1.309890	1.315751	1.314286
00:00:00.410	1.304029	1.306227	1.317216
00:00:00.411	1.306960	1.300366	1.305495
00:00:00.411	1.316484	1.304762	1.312821
00:00:00.411	1.307692	1.296703	1.290842
00:00:00.413	1.324542	1.312821	1.295238
00:00:00.413	1.302564	1.306227	1.295238
00:00:00.413	1.305495	1.317949	1.297436
00:00:00.414	1.317949	1.334066	1.295238
00:00:00.414	1.324542	1.342125	1.304029
00:00:00.414	1.295971	1.328205	1.293773
00:00:00.414	1.305495	1.326740	1.296703
00:00:00.416	1.302564	1.328938	1.300366
00:00:00.416	1.304762	1.309158	1.297436
00:00:00.449	1.306960	1.292308	1.295238
00:00:00.449	1.311355	1.276923	1.309890
00:00:00.449	1.309890	1.267399	1.315018
00:00:00.449	1.301832	1.265934	1.313553
00:00:00.449	1.306960	1.268132	1.310623
00:00:00.449	1.303297	1.269597	1.312821
00:00:00.449	1.309158	1.293773	1.306227
00:00:00.449	1.314286	1.306227	1.312821
00:00:00.449	1.303297	1.304029	1.306227
00:00:00.451	1.290110	1.291575	1.290842
00:00:00.451	1.279853	1.311355	1.301832
00:00:00.451	1.282784	1.320147	1.287179
00:00:00.451	1.310623	1.334799	1.304762
00:00:00.451	1.323810	1.329670	1.295971
00:00:00.452	1.364103	1.353114	1.309158
00:00:00.452	1.378022	1.350183	1.305495
00:00:00.452	1.347253	1.325275	1.309890
00:00:00.453	1.319414	1.313553	1.312821
00:00:00.453	1.253480	1.290110	1.298901
00:00:00.453	1.289377	1.294505	1.314286
00:00:00.454	1.298168	1.268864	1.300366
00:00:00.454	1.292308	1.263736	1.306960
00:00:00.454	1.311355	1.285714	1.309158
00:00:00.455	1.316484	1.307692	1.309890
00:00:00.455	1.322344	1.339194	1.288645
00:00:00.456	1.330403	1.359707	1.310623
00:00:00.456	1.320879	1.321612	1.314286
00:00:00.456	1.306227	1.295971	1.323077
00:00:00.457	1.267399	1.259341	1.300366
00:00:00.457	1.286447	1.290842	1.300366
00:00:00.457	1.320879	1.311355	1.310623
00:00:00.458	1.356044	1.309890	1.290842
00:00:00.458	1.394139	1.301099	1.287179
00:00:00.458	1.378022	1.295971	1.292308
00:00:00.459	1.341392	1.321612	1.307692
00:00:00.459	1.298168	1.317216	1.320879
00:00:00.459	1.243223	1.299634	1.325275
00:00:00.460	1.255678	1.295971	1.309158
00:00:00.460	1.249084	1.251282	1.308425
00:00:00.461	1.181685	1.232234	1.290110
00:00:00.461	1.228571	1.261538	1.297436
00:00:00.461	1.289377	1.265201	1.291575
00:00:00.462	1.361905	1.308425	1.306960
00:00:00.462	1.369231	1.318681	1.299634
00:00:00.462	1.326740	1.335531	1.304029
00:00:00.463	1.303297	1.336264	1.303297
00:00:00.463	1.292308	1.327473	1.290842
00:00:00.463	1.290842	1.330403	1.288645
00:00:00.464	1.315751	1.339194	1.296703
00:00:00.464	1.317216	1.317216	1.300366
00:00:00.496	1.330403	1.304762	1.310623
00:00:00.497	1.335531	1.314286	1.306227
00:00:00.497	1.326740	1.316484	1.308425
00:00:00.497	1.342857	1.296703	1.317216
00:00:00.498	1.344322	1.289377	1.317216
00:00:00.498	1.350916	1.295971	1.318681
00:00:00.498	1.328938	1.305495	1.317216
00:00:00.499	1.327473	1.302564	1.309890
00:00:00.499	1.294505	1.297436	1.304029
00:00:00.500	1.269597	1.293773	1.299634
00:00:00.500	1.271062	1.311355	1.294505
00:00:00.500	1.300366	1.315751	1.302564
00:00:00.501	1.304029	1.298901	1.293773
00:00:00.501	1.289377	1.291575	1.295238
00:00:00.501	1.288645	1.293773	1.296703
00:00:00.502	1.272527	1.300366	1.296703
00:00:00.502	1.241758	1.310623	1.305495
00:00:00.502	1.317949	1.302564	1.313553
00:00:00.503	1.395604	1.290110	1.302564
00:00:00.503	1.470330	1.306960	1.314286
00:00:00.503	1.457875	1.316484	1.320879
00:00:00.504	1.340659	1.304029	1.309890
00:00:00.504	1.214652	1.301099	1.304762
00:00:00.505	1.197070	1.298901	1.307692
00:00:00.505	1.230037	1.309890	1.312088
00:00:00.505	1.268132	1.307692	1.304762
00:00:00.506	1.298168	1.298168	1.292308
00:00:00.506	1.317949	1.306960	1.300366
00:00:00.506	1.308425	1.334799	1.291575
00:00:00.507	1.308425	1.363370	1.289377
00:00:00.509	1.315018	1.370696	1.297436
00:00:00.509	1.320879	1.386813	1.304029
00:00:00.509	1.320879	1.342125	1.301832
00:00:00.509	1.326740	1.271795	1.315751
00:00:00.509	1.304029	1.205128	1.302564
00:00:00.511	1.308425	1.235165	1.318681
00:00:00.511	1.320879	1.291575	1.314286
00:00:00.511	1.306227	1.285714	1.315018
00:00:00.511	1.317216	1.310623	1.309158
00:00:00.511	1.309158	1.342125	1.306227
00:00:00.511	1.314286	1.331136	1.304762
00:00:00.511	1.317216	1.331136	1.303297
00:00:00.511	1.322344	1.273993	1.294505
00:00:00.514	1.318681	1.248352	1.298168
00:00:00.514	1.326007	1.259341	1.296703
00:00:00.514	1.306227	1.293040	1.283516
00:00:00.514	1.310623	1.315018	1.297436
00:00:00.514	1.320147	1.304762	1.304029
00:00:00.514	1.304762	1.245421	1.293773
00:00:00.514	1.313553	1.268132	1.305495
00:00:00.546	1.314286	1.304762	1.305495
00:00:00.546	1.305495	1.335531	1.313553
00:00:00.547	1.300366	1.345055	1.318681
00:00:00.547	1.293040	1.324542	1.318681
00:00:00.547	1.293040	1.252015	1.295238
00:00:00.548	1.296703	1.263736	1.308425
00:00:00.548	1.315751	1.312821	1.305495
00:00:00.549	1.326740	1.350183	1.308425
00:00:00.549	1.309890	1.357509	1.298168
00:00:00.549	1.319414	1.342857	1.305495
00:00:00.550	1.315751	1.312821	1.298168
00:00:00.550	1.300366	1.315018	1.295971
00:00:00.550	1.310623	1.327473	1.293773
00:00:00.551	1.317216	1.317949	1.300366
00:00:00.551	1.312821	1.295971	1.298168
00:00:00.551	1.319414	1.295238	1.307692
00:00:00.552	1.306227	1.295238	1.301832
00:00:00.552	1.271795	1.317216	1.310623
00:00:00.552	1.283516	1.315018	1.315751
00:00:00.553	1.315018	1.339194	1.312088
00:00:00.553	1.347253	1.336996	1.320879
00:00:00.554	1.306227	1.345055	1.312088
00:00:00.554	1.340659	1.318681	1.313553
00:00:00.554	1.362637	1.265201	1.309158
00:00:00.555	1.399267	1.257143	1.291575
00:00:00.555	1.360440	1.268132	1.299634
00:00:00.555	1.279853	1.340659	1.297436
00:00:00.556	1.252015	1.334066	1.286447
00:00:00.556	1.217582	1.323077	1.299634
00:00:00.556	1.241026	1.327473	1.279853
00:00:00.557	1.253480	1.301832	1.276923
00:00:00.557	1.272527	1.274725	1.294505
00:00:00.557	1.309890	1.276190	1.301832
00:00:00.558	1.323077	1.215385	1.315018
00:00:00.558	1.333333	1.185348	1.311355
00:00:00.559	1.347253	1.213187	1.296703
00:00:00.559	1.367766	1.249817	1.310623
00:00:00.559	1.343590	1.292308	1.310623
00:00:00.560	1.297436	1.320879	1.317216
00:00:00.560	1.265201	1.335531	1.313553
00:00:00.560	1.282051	1.324542	1.306960
00:00:00.561	1.295971	1.326740	1.297436
00:00:00.562	1.306227	1.326740	1.304029
00:00:00.562	1.308425	1.330403	1.291575
00:00:00.562	1.316484	1.343590	1.303297
00:00:00.562	1.315751	1.350916	1.296703
00:00:00.563	1.328205	1.364835	1.304762
00:00:00.563	1.349451	1.393407	1.299634
00:00:00.563	1.331136	1.388278	1.293773
00:00:00.564	1.323077	1.347253	1.306960
00:00:00.596	1.303297	1.331136	1.302564
00:00:00.596	1.290110	1.358974	1.306227
00:00:00.596	1.294505	1.390476	1.316484
00:00:00.597	1.276190	1.298168	1.312088
00:00:00.597	1.284249	1.220513	1.304762
00:00:00.598	1.315751	1.209524	1.314286
00:00:00.598	1.339194	1.205861	1.312821
00:00:00.598	1.334066	1.295971	1.309158
00:00:00.599	1.334066	1.355311	1.312821
00:00:00.599	1.312088	1.205861	1.298901
00:00:00.599	1.309158	1.136264	1.300366
00:00:00.600	1.309158	1.135531	1.296703
00:00:00.601	1.312821	1.242491	1.285714
00:00:00.601	1.323810	1.408791	1.293040
00:00:00.601	1.275458	1.400000	1.290110
00:00:00.601	1.248352	1.254212	1.279121
00:00:00.601	1.287912	1.346520	1.288645
00:00:00.602	1.337729	1.433700	1.304029
00:00:00.602	1.365568	1.457143	1.309158
00:00:00.603	1.367766	1.369231	1.320879
00:00:00.603	1.292308	1.185348	1.315751
00:00:00.603	1.252015	1.170696	1.316484
00:00:00.604	1.252747	1.210989	1.310623
00:00:00.606	1.288645	1.235897	1.305495
00:00:00.606	1.315751	1.309890	1.308425
00:00:00.606	1.308425	1.371429	1.304029
00:00:00.606	1.304762	1.392674	1.293040
00:00:00.606	1.306227	1.357509	1.299634
00:00:00.608	1.336264	1.357509	1.296703
00:00:00.608	1.349451	1.283516	1.292308
00:00:00.608	1.383883	1.245421	1.295971
00:00:00.608	1.358242	1.272527	1.284249
00:00:00.608	1.332601	1.389744	1.305495
00:00:00.608	1.290110	1.408059	1.303297
00:00:00.608	1.253480	1.452747	1.312821
00:00:00.608	1.276923	1.433700	1.317949
00:00:00.611	1.293773	1.317216	1.317216
00:00:00.611	1.294505	1.197802	1.320879
00:00:00.611	1.287179	1.150916	1.318681
00:00:00.611	1.290110	1.208059	1.320879
00:00:00.611	1.285714	1.262271	1.312088
00:00:00.611	1.308425	1.281319	1.304762
00:00:00.611	1.298901	1.274725	1.291575
00:00:00.611	1.315018	1.302564	1.297436
00:00:00.613	1.317216	1.307692	1.287912
00:00:00.613	1.323810	1.335531	1.293773
00:00:00.613	1.296703	1.340659	1.291575
00:00:00.614	1.265201	1.347985	1.303297
00:00:00.614	1.303297	1.334066	1.315751
00:00:00.614	1.389011	1.311355	1.309158
00:00:00.645	1.433700	1.314286	1.315018
00:00:00.646	1.414652	1.317216	1.323077
00:00:00.646	1.353114	1.301832	1.314286
00:00:00.647	1.285714	1.287912	1.312821
00:00:00.647	1.266667	1.298901	1.313553
00:00:00.647	1.241026	1.265201	1.308425
00:00:00.648	1.230037	1.279853	1.306227
00:00:00.648	1.282051	1.304029	1.302564
00:00:00.648	1.294505	1.284982	1.297436
00:00:00.649	1.324542	1.307692	1.297436
00:00:00.649	1.336264	1.324542	1.298168
00:00:00.649	1.353114	1.284982	1.297436
00:00:00.650	1.342857	1.287912	1.293773
00:00:00.650	1.315018	1.320879	1.300366
00:00:00.650	1.303297	1.389011	1.299634
00:00:00.651	1.282051	1.515018	1.318681
00:00:00.651	1.292308	1.553846	1.333333
00:00:00.652	1.282784	1.441758	1.320147
00:00:00.652	1.241026	1.350183	1.320879
00:00:00.652	1.257143	1.406593	1.322344
00:00:00.653	1.320879	1.519414	1.334066
00:00:00.653	1.439560	1.841026	1.338462
00:00:00.653	1.460806	1.464469	1.318681
00:00:00.654	1.371429	1.123810	1.301832
00:00:00.654	1.282051	0.927473	1.283516
00:00:00.654	1.239560	0.872527	1.286447
00:00:00.655	1.204396	0.771429	1.272527
00:00:00.655	1.192674	0.709158	1.266667
00:00:00.655	1.218315	0.816117	1.258608
00:00:00.656	1.236630	1.071795	1.261538
00:00:00.656	1.265934	1.287179	1.276190
00:00:00.657	1.299634	1.446154	1.299634
00:00:00.657	1.339927	1.494505	1.306960
00:00:00.657	1.367766	1.485714	1.320879
00:00:00.658	1.375824	1.482051	1.329670
00:00:00.658	1.355311	1.442491	1.319414
00:00:00.658	1.339194	1.417582	1.312821
00:00:00.659	1.332601	1.438095	1.306227
00:00:00.659	1.320147	1.421978	1.313553
00:00:00.659	1.296703	1.390476	1.318681
00:00:00.660	1.268132	1.363370	1.305495
00:00:00.660	1.258608	1.396337	1.292308
00:00:00.660	1.288645	1.383150	1.291575
00:00:00.661	1.347253	1.334066	1.286447
00:00:00.661	1.364103	1.282051	1.300366
00:00:00.662	1.380220	1.299634	1.327473
00:00:00.662	1.383883	1.312821	1.309890
00:00:00.662	1.360440	1.313553	1.304762
00:00:00.663	1.317216	1.278388	1.312821
00:00:00.663	1.266667	1.253480	1.297436
