timestamp	ch1	ch2	ch3
00:00:00.000	1.291575	1.260073	1.283516
00:00:00.000	1.289377	1.299634	1.284982
00:00:00.000	1.312088	1.339927	1.299634
00:00:00.001	1.304762	1.343590	1.290842
00:00:00.001	1.319414	1.342857	1.310623
00:00:00.001	1.327473	1.336264	1.311355
00:00:00.002	1.312088	1.322344	1.306960
00:00:00.002	1.315751	1.312088	1.312821
00:00:00.002	1.325275	1.309890	1.312821
00:00:00.003	1.317216	1.310623	1.315751
00:00:00.003	1.328938	1.320147	1.315018
00:00:00.003	1.313553	1.311355	1.298901
00:00:00.004	1.304762	1.321612	1.310623
00:00:00.004	1.312088	1.321612	1.303297
00:00:00.005	1.294505	1.328205	1.305495
00:00:00.005	1.299634	1.347253	1.300366
00:00:00.005	1.298901	1.336996	1.290842
00:00:00.006	1.288645	1.309890	1.295971
00:00:00.006	1.298168	1.280586	1.292308
00:00:00.006	1.303297	1.262271	1.292308
00:00:00.007	1.314286	1.285714	1.303297
00:00:00.007	1.315018	1.299634	1.304029
00:00:00.007	1.324542	1.312821	1.315018
00:00:00.008	1.320147	1.298168	1.315751
00:00:00.008	1.319414	1.285714	1.312088
00:00:00.040	1.315751	1.288645	1.309158
00:00:00.041	1.317949	1.292308	1.311355
00:00:00.041	1.318681	1.298901	1.310623
00:00:00.041	1.308425	1.294505	1.309890
00:00:00.043	1.306960	1.298901	1.302564
00:00:00.043	1.294505	1.300366	1.295238
00:00:00.043	1.304029	1.311355	1.306227
00:00:00.043	1.294505	1.315018	1.299634
00:00:00.043	1.300366	1.323810	1.298168
00:00:00.044	1.298901	1.324542	1.306227
00:00:00.044	1.304029	1.321612	1.304762
00:00:00.044	1.295971	1.304029	1.300366
00:00:00.045	1.305495	1.306227	1.298901
00:00:00.045	1.315751	1.298168	1.279853
00:00:00.045	1.310623	1.288645	1.287912
00:00:00.050	1.324542	1.280586	1.295238
00:00:00.050	1.315751	1.268864	1.310623
00:00:00.050	1.321612	1.282784	1.306227
00:00:00.050	1.323810	1.295238	1.300366
00:00:00.050	1.320147	1.300366	1.302564
00:00:00.050	1.310623	1.304762	1.308425
00:00:00.050	1.298901	1.307692	1.323810
00:00:00.050	1.290842	1.312821	1.323810
00:00:00.050	1.295971	1.324542	1.308425
00:00:00.050	1.291575	1.319414	1.295971
00:00:00.050	1.303297	1.317949	1.298901
00:00:00.050	1.302564	1.301832	1.287179
00:00:00.050	1.305495	1.308425	1.293040
00:00:00.050	1.308425	1.314286	1.299634
00:00:00.053	1.304029	1.326007	1.300366
00:00:00.053	1.326007	1.348718	1.305495
00:00:00.053	1.321612	1.355311	1.296703
00:00:00.053	1.323810	1.345055	1.320879
00:00:00.053	1.313553	1.283516	1.320147
00:00:00.053	1.300366	1.254945	1.309890
00:00:00.053	1.323810	1.284982	1.315018
00:00:00.053	1.312821	1.296703	1.300366
00:00:00.054	1.301099	1.260806	1.309158
00:00:00.054	1.308425	1.235165	1.302564
00:00:00.054	1.291575	1.252747	1.284982
00:00:00.055	1.298168	1.275458	1.285714
00:00:00.055	1.300366	1.296703	1.295971
00:00:00.055	1.295971	1.297436	1.294505
00:00:00.056	1.303297	1.295238	1.295971
00:00:00.056	1.306227	1.312088	1.297436
00:00:00.056	1.315018	1.322344	1.302564
00:00:00.057	1.317216	1.317949	1.302564
00:00:00.057	1.326007	1.308425	1.310623
00:00:00.057	1.325275	1.338462	1.317949
00:00:00.058	1.320879	1.323077	1.308425
00:00:00.090	1.326007	1.309890	1.304029
00:00:00.090	1.320879	1.303297	1.315018
00:00:00.091	1.315018	1.290842	1.309890
00:00:00.091	1.313553	1.298901	1.313553
00:00:00.091	1.299634	1.297436	1.300366
00:00:00.092	1.289377	1.286447	1.292308
00:00:00.092	1.301099	1.302564	1.300366
00:00:00.093	1.300366	1.312088	1.300366
00:00:00.093	1.300366	1.323810	1.295238
00:00:00.093	1.287912	1.311355	1.284249
00:00:00.094	1.283516	1.306227	1.284249
00:00:00.094	1.306227	1.317216	1.298168
00:00:00.094	1.318681	1.316484	1.304029
00:00:00.095	1.312088	1.307692	1.312821
00:00:00.095	1.322344	1.304762	1.309158
00:00:00.095	1.320879	1.295971	1.304762
00:00:00.096	1.326740	1.295971	1.312821
00:00:00.096	1.321612	1.302564	1.315751
00:00:00.096	1.301832	1.290110	1.304762
00:00:00.097	1.309158	1.317949	1.315751
00:00:00.097	1.295971	1.313553	1.308425
00:00:00.098	1.303297	1.320147	1.311355
00:00:00.099	1.295971	1.302564	1.291575
00:00:00.099	1.290842	1.308425	1.287912
00:00:00.099	1.295971	1.323077	1.292308
00:00:00.099	1.295238	1.331868	1.298901
00:00:00.099	1.295971	1.315751	1.295971
00:00:00.100	1.312821	1.317949	1.300366
00:00:00.100	1.312088	1.295238	1.297436
00:00:00.100	1.317216	1.282784	1.298901
00:00:00.101	1.319414	1.262271	1.307692
00:00:00.101	1.312821	1.250549	1.302564
00:00:00.101	1.326007	1.275458	1.319414
00:00:00.102	1.322344	1.284249	1.312088
00:00:00.102	1.315018	1.276923	1.306960
00:00:00.103	1.315018	1.303297	1.315018
00:00:00.103	1.305495	1.316484	1.302564
00:00:00.103	1.307692	1.328205	1.306960
00:00:00.104	1.305495	1.318681	1.305495
00:00:00.104	1.304762	1.316484	1.296703
00:00:00.104	1.303297	1.319414	1.300366
00:00:00.105	1.297436	1.309890	1.288645
00:00:00.105	1.300366	1.312821	1.297436
00:00:00.105	1.312088	1.320147	1.298901
00:00:00.106	1.304029	1.315018	1.299634
00:00:00.106	1.311355	1.311355	1.300366
00:00:00.107	1.312821	1.300366	1.291575
00:00:00.107	1.321612	1.303297	1.315751
00:00:00.107	1.323810	1.301832	1.307692
00:00:00.108	1.318681	1.294505	1.304029
00:00:00.140	1.325275	1.303297	1.311355
00:00:00.141	1.312088	1.278388	1.306227
00:00:00.141	1.309158	1.280586	1.312821
00:00:00.141	1.315751	1.315018	1.314286
00:00:00.141	1.312088	1.333333	1.315018
00:00:00.144	1.293040	1.326007	1.305495
00:00:00.144	1.306227	1.331868	1.303297
00:00:00.144	1.299634	1.314286	1.289377
00:00:00.144	1.303297	1.317216	1.300366
00:00:00.144	1.287179	1.300366	1.285714
00:00:00.144	1.290842	1.298901	1.284982
00:00:00.146	1.302564	1.284249	1.295971
00:00:00.146	1.318681	1.257143	1.303297
00:00:00.146	1.316484	1.258608	1.306227
00:00:00.146	1.308425	1.279853	1.304029
00:00:00.146	1.331868	1.295238	1.312821
00:00:00.146	1.322344	1.284249	1.321612
00:00:00.146	1.319414	1.276923	1.320879
00:00:00.146	1.314286	1.312088	1.320879
00:00:00.150	1.317216	1.334066	1.306227
00:00:00.150	1.311355	1.329670	1.306227
00:00:00.150	1.306227	1.307692	1.296703
00:00:00.150	1.303297	1.292308	1.296703
00:00:00.150	1.290842	1.286447	1.285714
00:00:00.150	1.289377	1.294505	1.286447
00:00:00.150	1.289377	1.292308	1.284982
00:00:00.150	1.285714	1.312088	1.289377
00:00:00.150	1.294505	1.328205	1.300366
00:00:00.150	1.282784	1.312821	1.292308
00:00:00.152	1.293040	1.321612	1.309890
00:00:00.152	1.297436	1.310623	1.306960
00:00:00.152	1.324542	1.321612	1.317216
00:00:00.152	1.328938	1.317949	1.309158
00:00:00.152	1.328938	1.309158	1.300366
00:00:00.153	1.334799	1.307692	1.312821
00:00:00.153	1.338462	1.312821	1.314286
00:00:00.153	1.315018	1.299634	1.309158
00:00:00.153	1.314286	1.306227	1.309890
00:00:00.153	1.304029	1.303297	1.304029
00:00:00.154	1.309890	1.309158	1.308425
00:00:00.154	1.306227	1.313553	1.290842
00:00:00.154	1.306227	1.318681	1.300366
00:00:00.155	1.293040	1.303297	1.292308
00:00:00.155	1.303297	1.317216	1.295971
00:00:00.156	1.304029	1.301832	1.283516
00:00:00.156	1.315018	1.304762	1.305495
00:00:00.156	1.316484	1.289377	1.306960
00:00:00.157	1.320147	1.302564	1.315751
00:00:00.157	1.321612	1.329670	1.312088
00:00:00.157	1.306227	1.319414	1.305495
00:00:00.189	1.317949	1.317949	1.311355
00:00:00.190	1.312088	1.284249	1.306960
00:00:00.190	1.312821	1.260073	1.309158
00:00:00.191	1.320879	1.269597	1.315018
00:00:00.191	1.305495	1.273993	1.300366
00:00:00.191	1.295971	1.282051	1.305495
00:00:00.192	1.284982	1.292308	1.296703
00:00:00.192	1.293773	1.309158	1.297436
00:00:00.192	1.301832	1.322344	1.302564
00:00:00.193	1.303297	1.308425	1.291575
00:00:00.193	1.317949	1.326007	1.295971
00:00:00.193	1.304029	1.319414	1.296703
00:00:00.194	1.322344	1.316484	1.300366
00:00:00.194	1.319414	1.315751	1.296703
00:00:00.195	1.314286	1.312821	1.314286
00:00:00.195	1.316484	1.306227	1.303297
00:00:00.195	1.326007	1.295971	1.311355
00:00:00.196	1.327473	1.293040	1.300366
00:00:00.196	1.328205	1.308425	1.323077
00:00:00.196	1.308425	1.301099	1.312821
00:00:00.197	1.300366	1.300366	1.304029
00:00:00.197	1.297436	1.287179	1.284982
00:00:00.197	1.295971	1.304029	1.297436
00:00:00.198	1.290110	1.301099	1.290842
00:00:00.198	1.297436	1.315751	1.300366
00:00:00.198	1.300366	1.314286	1.295971
00:00:00.199	1.303297	1.320147	1.304029
00:00:00.199	1.306227	1.315751	1.297436
00:00:00.200	1.319414	1.303297	1.292308
00:00:00.200	1.341392	1.324542	1.309158
00:00:00.200	1.326740	1.315751	1.306960
00:00:00.201	1.326007	1.315751	1.309158
00:00:00.201	1.320879	1.319414	1.310623
00:00:00.201	1.315018	1.312088	1.304762
00:00:00.202	1.320147	1.312821	1.311355
00:00:00.202	1.309890	1.288645	1.312821
00:00:00.203	1.305495	1.293040	1.308425
00:00:00.203	1.307692	1.294505	1.310623
00:00:00.203	1.295238	1.284982	1.310623
00:00:00.203	1.293040	1.275458	1.304029
00:00:00.204	1.284249	1.276923	1.298901
00:00:00.204	1.287912	1.290842	1.298168
00:00:00.205	1.291575	1.286447	1.288645
00:00:00.205	1.304762	1.301832	1.292308
00:00:00.205	1.309158	1.313553	1.298168
00:00:00.208	1.316484	1.324542	1.300366
00:00:00.208	1.311355	1.316484	1.300366
00:00:00.208	1.304762	1.316484	1.293773
00:00:00.208	1.313553	1.327473	1.309158
00:00:00.208	1.308425	1.315751	1.298901
00:00:00.241	1.328205	1.315018	1.312821
00:00:00.241	1.322344	1.303297	1.309158
00:00:00.241	1.323810	1.313553	1.317949
00:00:00.241	1.321612	1.336996	1.310623
00:00:00.242	1.320147	1.313553	1.311355
00:00:00.242	1.316484	1.285714	1.312821
00:00:00.242	1.301832	1.311355	1.299634
00:00:00.242	1.308425	1.358242	1.300366
00:00:00.242	1.306960	1.336996	1.299634
00:00:00.242	1.310623	1.303297	1.301832
00:00:00.245	1.304762	1.257143	1.300366
00:00:00.245	1.298168	1.224908	1.279121
00:00:00.245	1.311355	1.262271	1.309158
00:00:00.245	1.319414	1.273993	1.298901
00:00:00.245	1.323810	1.270330	1.306960
00:00:00.245	1.272527	1.265201	1.306227
00:00:00.245	1.275458	1.279121	1.304029
00:00:00.245	1.297436	1.306227	1.304029
00:00:00.246	1.328205	1.329670	1.316484
00:00:00.246	1.345055	1.328205	1.312821
00:00:00.246	1.348718	1.320879	1.300366
00:00:00.247	1.350183	1.317216	1.306227
00:00:00.247	1.342125	1.319414	1.312821
00:00:00.247	1.317949	1.328205	1.312088
00:00:00.248	1.282051	1.322344	1.298168
00:00:00.248	1.194139	1.323810	1.290842
00:00:00.249	1.179487	1.332601	1.301832
00:00:00.249	1.275458	1.348718	1.298168
00:00:00.249	1.342857	1.339927	1.300366
00:00:00.250	1.381685	1.317949	1.304762
00:00:00.250	1.399267	1.283516	1.283516
00:00:00.250	1.401465	1.286447	1.304029
00:00:00.251	1.350916	1.268864	1.299634
00:00:00.251	1.307692	1.279121	1.315751
00:00:00.251	1.273993	1.285714	1.315751
00:00:00.252	1.268864	1.272527	1.312821
00:00:00.252	1.305495	1.303297	1.321612
00:00:00.252	1.305495	1.300366	1.298901
00:00:00.253	1.301832	1.306227	1.313553
00:00:00.253	1.305495	1.306960	1.308425
00:00:00.254	1.294505	1.297436	1.293773
00:00:00.254	1.295238	1.301832	1.298168
00:00:00.254	1.301832	1.315018	1.292308
00:00:00.255	1.300366	1.330403	1.297436
00:00:00.255	1.306227	1.324542	1.300366
00:00:00.255	1.290842	1.309890	1.298168
00:00:00.256	1.285714	1.302564	1.292308
00:00:00.256	1.306227	1.305495	1.290842
00:00:00.256	1.331868	1.318681	1.309890
00:00:00.257	1.334066	1.328938	1.318681
00:00:00.289	1.323077	1.326007	1.320879
00:00:00.289	1.320147	1.318681	1.309158
00:00:00.290	1.315018	1.312821	1.310623
00:00:00.290	1.304029	1.306960	1.303297
00:00:00.290	1.309158	1.290842	1.302564
00:00:00.291	1.296703	1.281319	1.306960
00:00:00.291	1.284982	1.263736	1.298168
00:00:00.291	1.300366	1.243223	1.285714
00:00:00.292	1.312088	1.260073	1.299634
00:00:00.292	1.311355	1.287179	1.296703
00:00:00.293	1.309158	1.295971	1.302564
00:00:00.293	1.306960	1.300366	1.297436
00:00:00.293	1.306227	1.297436	1.300366
00:00:00.294	1.304029	1.312821	1.302564
00:00:00.294	1.306960	1.311355	1.295971
00:00:00.294	1.320147	1.319414	1.311355
00:00:00.295	1.323077	1.309890	1.308425
00:00:00.295	1.304762	1.290842	1.312088
00:00:00.295	1.260073	1.297436	1.306960
00:00:00.296	1.263004	1.293040	1.311355
00:00:00.296	1.304762	1.307692	1.317216
00:00:00.296	1.342857	1.303297	1.309158
00:00:00.297	1.357509	1.312821	1.300366
00:00:00.297	1.365568	1.342125	1.300366
00:00:00.298	1.353114	1.320147	1.291575
00:00:00.298	1.344322	1.325275	1.293773
00:00:00.298	1.310623	1.323810	1.300366
00:00:00.299	1.276923	1.329670	1.306227
00:00:00.299	1.269597	1.329670	1.289377
00:00:00.299	1.280586	1.311355	1.298168
00:00:00.300	1.295238	1.304029	1.305495
00:00:00.300	1.300366	1.279121	1.309158
00:00:00.300	1.296703	1.263736	1.307692
00:00:00.301	1.286447	1.254212	1.306960
00:00:00.302	1.281319	1.270330	1.300366
00:00:00.302	1.284982	1.266667	1.313553
00:00:00.302	1.276923	1.249084	1.306227
00:00:00.302	1.292308	1.290110	1.296703
00:00:00.307	1.323077	1.347985	1.310623
00:00:00.307	1.326740	1.346520	1.304762
00:00:00.307	1.321612	1.326007	1.305495
00:00:00.307	1.318681	1.335531	1.302564
00:00:00.307	1.320879	1.344322	1.296703
00:00:00.307	1.336264	1.319414	1.290110
00:00:00.307	1.323810	1.287912	1.293773
00:00:00.307	1.309158	1.304029	1.288645
00:00:00.307	1.305495	1.306960	1.295238
00:00:00.307	1.290110	1.296703	1.292308
00:00:00.307	1.304762	1.302564	1.306960
00:00:00.307	1.321612	1.287179	1.312088
00:00:00.342	1.317949	1.280586	1.316484
00:00:00.342	1.307692	1.315018	1.304029
00:00:00.342	1.302564	1.341392	1.297436
00:00:00.342	1.304762	1.293773	1.287179
00:00:00.342	1.287912	1.279121	1.307692
00:00:00.342	1.285714	1.298168	1.299634
00:00:00.342	1.312821	1.310623	1.309158
00:00:00.342	1.312088	1.275458	1.300366
00:00:00.342	1.303297	1.249084	1.300366
00:00:00.342	1.289377	1.262271	1.298168
00:00:00.342	1.309890	1.272527	1.304029
00:00:00.344	1.252015	1.273993	1.304762
00:00:00.344	1.230037	1.290110	1.300366
00:00:00.344	1.251282	1.291575	1.299634
00:00:00.344	1.332601	1.312088	1.300366
00:00:00.345	1.412454	1.332601	1.314286
00:00:00.345	1.484982	1.341392	1.315751
00:00:00.345	1.521612	1.347985	1.316484
00:00:00.345	1.429304	1.312821	1.310623
00:00:00.345	1.304029	1.306960	1.306960
00:00:00.346	1.222711	1.304762	1.306227
00:00:00.346	1.117949	1.317949	1.307692
00:00:00.347	1.130403	1.317949	1.296703
00:00:00.347	1.239560	1.328938	1.304029
00:00:00.347	1.304762	1.338462	1.294505
00:00:00.348	1.384615	1.304762	1.296703
00:00:00.348	1.359707	1.309158	1.287912
00:00:00.348	1.317949	1.356044	1.276923
00:00:00.349	1.328938	1.353846	1.279121
00:00:00.349	1.232967	1.316484	1.293040
00:00:00.349	1.233700	1.271795	1.305495
00:00:00.350	1.284982	1.252747	1.329670
00:00:00.350	1.342857	1.279121	1.342857
00:00:00.350	1.384615	1.341392	1.326007
00:00:00.351	1.397070	1.401465	1.323810
00:00:00.351	1.381685	1.319414	1.300366
00:00:00.352	1.341392	1.262271	1.299634
00:00:00.352	1.278388	1.250549	1.293773
00:00:00.352	1.226374	1.262271	1.306227
00:00:00.353	1.240293	1.260806	1.310623
00:00:00.353	1.274725	1.227839	1.299634
00:00:00.353	1.305495	1.175824	1.292308
00:00:00.354	1.328205	1.210256	1.300366
00:00:00.354	1.346520	1.308425	1.276923
00:00:00.354	1.356044	1.356044	1.276923
00:00:00.355	1.359707	1.350183	1.293040
00:00:00.355	1.321612	1.324542	1.287179
00:00:00.356	1.293040	1.325275	1.307692
00:00:00.356	1.298901	1.352381	1.300366
00:00:00.356	1.308425	1.402198	1.306960
00:00:00.388	1.323077	1.377289	1.323810
00:00:00.389	1.310623	1.321612	1.328205
00:00:00.389	1.309158	1.306960	1.343590
00:00:00.389	1.331868	1.302564	1.308425
00:00:00.390	1.350183	1.287179	1.302564
00:00:00.390	1.344322	1.279121	1.309890
00:00:00.392	1.303297	1.243956	1.295971
00:00:00.392	1.277656	1.246154	1.287179
00:00:00.392	1.276923	1.284982	1.290110
00:00:00.392	1.283516	1.315751	1.307692
00:00:00.392	1.285714	1.303297	1.293040
00:00:00.392	1.309158	1.315018	1.300366
00:00:00.393	1.353114	1.331868	1.289377
00:00:00.393	1.384615	1.305495	1.281319
00:00:00.393	1.402930	1.310623	1.300366
00:00:00.394	1.341392	1.294505	1.293040
00:00:00.394	1.279121	1.290110	1.304029
00:00:00.395	1.227839	1.299634	1.304029
00:00:00.395	1.136264	1.310623	1.304762
00:00:00.395	1.150183	1.295971	1.312821
00:00:00.396	1.252747	1.254945	1.309158
00:00:00.396	1.291575	1.307692	1.306227
00:00:00.396	1.361172	1.400733	1.307692
00:00:00.397	1.457875	1.404396	1.316484
00:00:00.397	1.418315	1.334066	1.309158
00:00:00.397	1.304029	1.326007	1.299634
00:00:00.399	1.237363	1.275458	1.295238
00:00:00.399	1.249084	1.251282	1.283516
00:00:00.399	1.288645	1.265934	1.293773
00:00:00.402	1.287912	1.271795	1.292308
00:00:00.402	1.294505	1.267399	1.289377
00:00:00.402	1.328205	1.300366	1.301099
00:00:00.402	1.325275	1.366300	1.312088
00:00:00.402	1.215385	1.399267	1.299634
00:00:00.402	1.260806	1.369963	1.309158
00:00:00.402	1.342857	1.319414	1.321612
00:00:00.402	1.411722	1.315751	1.317949
00:00:00.402	1.473260	1.279121	1.315751
00:00:00.402	1.475458	1.241026	1.305495
00:00:00.402	1.411722	1.197070	1.293773
00:00:00.406	1.298168	1.183883	1.272527
00:00:00.406	1.198535	1.196337	1.260806
00:00:00.406	1.165568	1.261538	1.272527
00:00:00.406	1.235897	1.295971	1.347253
00:00:00.406	1.302564	1.300366	1.320147
00:00:00.406	1.322344	1.350183	1.331136
00:00:00.406	1.316484	1.371429	1.298901
00:00:00.406	1.311355	1.359707	1.289377
00:00:00.406	1.304762	1.353846	1.290842
00:00:00.406	1.326740	1.343590	1.288645
00:00:00.438	1.331868	1.343590	1.315751
00:00:00.439	1.322344	1.339194	1.336996
00:00:00.439	1.330403	1.333333	1.348718
00:00:00.439	1.361905	1.317949	1.331868
00:00:00.440	1.375824	1.304029	1.306227
00:00:00.440	1.353846	1.323810	1.303297
00:00:00.440	1.294505	1.342857	1.288645
00:00:00.441	1.206593	1.336996	1.295971
00:00:00.441	1.242491	1.316484	1.293773
00:00:00.441	1.262271	1.279853	1.291575
00:00:00.442	1.304029	1.252015	1.293773
00:00:00.442	1.294505	1.260806	1.293040
00:00:00.442	1.322344	1.267399	1.290842
00:00:00.444	1.338462	1.264469	1.297436
00:00:00.444	1.330403	1.282051	1.306227
00:00:00.444	1.312821	1.297436	1.306960
00:00:00.444	1.293773	1.284249	1.306227
00:00:00.444	1.302564	1.287912	1.312821
00:00:00.445	1.290842	1.291575	1.302564
00:00:00.445	1.298168	1.352381	1.309890
00:00:00.445	1.301099	1.389011	1.312821
00:00:00.446	1.293040	1.375824	1.317949
00:00:00.446	1.318681	1.364835	1.309890
00:00:00.446	1.306960	1.330403	1.305495
00:00:00.447	1.318681	1.357509	1.306227
00:00:00.447	1.342125	1.276190	1.307692
00:00:00.447	1.331136	1.242491	1.305495
00:00:00.448	1.300366	1.238828	1.284982
00:00:00.448	1.299634	1.279121	1.300366
00:00:00.449	1.297436	1.257143	1.306960
00:00:00.449	1.291575	1.218315	1.289377
00:00:00.449	1.281319	1.207326	1.302564
00:00:00.450	1.279121	1.219048	1.291575
00:00:00.450	1.279121	1.307692	1.297436
00:00:00.450	1.304029	1.361172	1.300366
00:00:00.451	1.313553	1.369963	1.317216
00:00:00.451	1.333333	1.350916	1.317949
00:00:00.451	1.336264	1.326007	1.312821
00:00:00.452	1.326007	1.322344	1.315018
00:00:00.452	1.313553	1.327473	1.298168
00:00:00.452	1.304029	1.342857	1.306960
00:00:00.453	1.305495	1.323077	1.303297
00:00:00.453	1.314286	1.292308	1.300366
00:00:00.454	1.315018	1.253480	1.294505
00:00:00.454	1.232967	1.230769	1.273260
00:00:00.454	1.274725	1.309890	1.292308
00:00:00.455	1.329670	1.336264	1.293773
00:00:00.455	1.446154	1.338462	1.299634
00:00:00.455	1.457875	1.326007	1.315018
00:00:00.456	1.425641	1.322344	1.304762
00:00:00.488	1.367033	1.332601	1.311355
00:00:00.488	1.282784	1.327473	1.276923
00:00:00.489	1.190476	1.341392	1.296703
00:00:00.489	1.201465	1.345055	1.305495
00:00:00.489	1.235897	1.342125	1.314286
00:00:00.490	1.317949	1.328205	1.320879
00:00:00.490	1.383883	1.295238	1.305495
00:00:00.490	1.404396	1.300366	1.306227
00:00:00.491	1.343590	1.282051	1.326007
00:00:00.491	1.268132	1.263736	1.334799
00:00:00.491	1.224908	1.296703	1.296703
00:00:00.492	1.253480	1.316484	1.290842
00:00:00.492	1.300366	1.285714	1.294505
00:00:00.493	1.312088	1.265934	1.297436
00:00:00.493	1.312088	1.253480	1.293773
00:00:00.493	1.315751	1.254212	1.303297
00:00:00.495	1.306227	1.243956	1.290842
00:00:00.495	1.308425	1.257143	1.305495
00:00:00.495	1.340659	1.290110	1.299634
00:00:00.495	1.339927	1.326740	1.307692
00:00:00.496	1.317216	1.326007	1.309158
00:00:00.496	1.329670	1.338462	1.312821
00:00:00.496	1.301832	1.343590	1.302564
00:00:00.496	1.291575	1.390476	1.303297
00:00:00.496	1.275458	1.424176	1.309158
00:00:00.498	1.263004	1.394139	1.284982
00:00:00.498	1.282784	1.343590	1.287179
00:00:00.498	1.299634	1.308425	1.300366
00:00:00.498	1.361172	1.277656	1.296703
00:00:00.498	1.400000	1.253480	1.304029
00:00:00.502	1.402930	1.220513	1.303297
00:00:00.502	1.333333	1.227839	1.298901
00:00:00.502	1.275458	1.287179	1.317949
00:00:00.502	1.245421	1.255678	1.308425
00:00:00.502	1.268132	1.251282	1.310623
00:00:00.502	1.299634	1.304029	1.307692
00:00:00.502	1.318681	1.342125	1.317949
00:00:00.502	1.323810	1.343590	1.311355
00:00:00.502	1.315751	1.310623	1.314286
00:00:00.502	1.297436	1.268132	1.304762
00:00:00.502	1.309158	1.300366	1.297436
00:00:00.503	1.327473	1.315751	1.298168
00:00:00.504	1.339194	1.265201	1.300366
00:00:00.504	1.333333	1.276190	1.297436
00:00:00.504	1.319414	1.306227	1.293773
00:00:00.504	1.309158	1.308425	1.304762
00:00:00.504	1.283516	1.299634	1.301832
00:00:00.505	1.254945	1.315751	1.298168
00:00:00.505	1.279121	1.346520	1.312088
00:00:00.505	1.292308	1.338462	1.308425
00:00:00.538	1.282784	1.315751	1.316484
00:00:00.538	1.309158	1.302564	1.300366
00:00:00.538	1.340659	1.333333	1.309158
00:00:00.539	1.352381	1.334799	1.313553
00:00:00.539	1.344322	1.323077	1.307692
00:00:00.539	1.331136	1.317216	1.312821
00:00:00.540	1.317949	1.322344	1.309158
00:00:00.540	1.297436	1.292308	1.300366
00:00:00.540	1.299634	1.295971	1.309890
00:00:00.541	1.302564	1.290842	1.302564
00:00:00.541	1.295238	1.326007	1.299634
00:00:00.542	1.285714	1.416117	1.300366
00:00:00.542	1.298901	1.349451	1.299634
00:00:00.542	1.306960	1.256410	1.297436
00:00:00.543	1.304762	1.279853	1.288645
00:00:00.543	1.300366	1.303297	1.297436
00:00:00.543	1.259341	1.258608	1.304029
00:00:00.544	1.248352	1.257875	1.290110
00:00:00.544	1.347253	1.271062	1.306960
00:00:00.544	1.388278	1.307692	1.317949
00:00:00.545	1.408791	1.323077	1.320147
00:00:00.545	1.322344	1.342125	1.323810
00:00:00.545	1.303297	1.301832	1.316484
00:00:00.546	1.312088	1.291575	1.303297
00:00:00.546	1.341392	1.263736	1.300366
00:00:00.547	1.400000	1.239560	1.302564
00:00:00.547	1.397802	1.248352	1.294505
00:00:00.548	1.311355	1.297436	1.292308
00:00:00.548	1.232967	1.370696	1.297436
00:00:00.548	1.220513	1.363370	1.297436
00:00:00.548	1.233700	1.333333	1.290842
00:00:00.549	1.253480	1.318681	1.287912
00:00:00.549	1.268864	1.310623	1.276190
00:00:00.549	1.307692	1.312088	1.320879
00:00:00.550	1.323810	1.306960	1.349451
00:00:00.550	1.344322	1.281319	1.345055
00:00:00.550	1.350183	1.268864	1.315751
00:00:00.551	1.349451	1.284249	1.302564
00:00:00.551	1.347253	1.291575	1.304029
00:00:00.552	1.341392	1.298901	1.284982
00:00:00.552	1.324542	1.290110	1.293040
00:00:00.552	1.295971	1.301832	1.294505
00:00:00.553	1.232234	1.298901	1.291575
00:00:00.553	1.182418	1.358242	1.293040
00:00:00.553	1.261538	1.369231	1.301832
00:00:00.554	1.306960	1.328205	1.298901
00:00:00.554	1.334066	1.326007	1.307692
00:00:00.554	1.361172	1.310623	1.297436
00:00:00.555	1.358974	1.293040	1.304029
00:00:00.555	1.350916	1.258608	1.305495
00:00:00.587	1.334799	1.261538	1.303297
00:00:00.588	1.318681	1.308425	1.314286
00:00:00.588	1.305495	1.289377	1.300366
00:00:00.588	1.302564	1.278388	1.302564
00:00:00.589	1.301832	1.284249	1.309158
00:00:00.589	1.242491	1.317949	1.311355
00:00:00.589	1.219780	1.329670	1.309158
00:00:00.593	1.272527	1.292308	1.302564
00:00:00.593	1.351648	1.270330	1.300366
00:00:00.593	1.399267	1.300366	1.299634
00:00:00.593	1.386081	1.338462	1.302564
00:00:00.593	1.323810	1.326740	1.291575
00:00:00.593	1.264469	1.335531	1.287912
00:00:00.593	1.288645	1.377289	1.296703
00:00:00.593	1.320879	1.350916	1.300366
00:00:00.594	1.328938	1.321612	1.299634
00:00:00.594	1.336264	1.311355	1.312088
00:00:00.594	1.317949	1.293773	1.308425
00:00:00.594	1.287912	1.260806	1.296703
00:00:00.594	1.306960	1.241758	1.309158
00:00:00.594	1.298901	1.205128	1.306227
00:00:00.595	1.295971	1.214652	1.310623
00:00:00.595	1.294505	1.261538	1.309158
00:00:00.598	1.285714	1.300366	1.304762
00:00:00.598	1.300366	1.323810	1.306960
00:00:00.598	1.317949	1.331136	1.306960
00:00:00.598	1.318681	1.334066	1.305495
00:00:00.598	1.334066	1.335531	1.303297
00:00:00.598	1.318681	1.322344	1.292308
00:00:00.598	1.306960	1.337729	1.299634
00:00:00.598	1.300366	1.338462	1.300366
00:00:00.598	1.301832	1.356777	1.293040
00:00:00.599	1.306227	1.380952	1.304762
00:00:00.599	1.315018	1.410256	1.308425
00:00:00.600	1.315018	1.325275	1.309158
00:00:00.600	1.309158	1.258608	1.314286
00:00:00.600	1.309158	1.284982	1.320147
00:00:00.601	1.309158	1.268864	1.312821
00:00:00.601	1.304029	1.248352	1.315751
00:00:00.601	1.287179	1.224176	1.300366
00:00:00.602	1.280586	1.216117	1.302564
00:00:00.602	1.279121	1.269597	1.301832
00:00:00.602	1.287179	1.298901	1.300366
00:00:00.603	1.326740	1.320879	1.298901
00:00:00.603	1.373626	1.348718	1.292308
00:00:00.603	1.388278	1.397802	1.306960
00:00:00.604	1.372894	1.328938	1.294505
00:00:00.604	1.331868	1.287912	1.300366
00:00:00.605	1.302564	1.293773	1.306960
00:00:00.605	1.268864	1.293040	1.306960
00:00:00.637	1.282051	1.295238	1.294505
00:00:00.637	1.309158	1.318681	1.316484
00:00:00.638	1.300366	1.307692	1.312088
00:00:00.638	1.294505	1.300366	1.315751
00:00:00.638	1.303297	1.328205	1.312821
00:00:00.639	1.294505	1.316484	1.302564
00:00:00.639	1.306227	1.353846	1.312088
00:00:00.640	1.312821	1.372894	1.309158
00:00:00.640	1.311355	1.360440	1.295238
00:00:00.640	1.297436	1.300366	1.291575
00:00:00.641	1.310623	1.285714	1.303297
00:00:00.641	1.316484	1.274725	1.305495
00:00:00.641	1.316484	1.309158	1.302564
00:00:00.642	1.296703	1.325275	1.285714
00:00:00.642	1.323077	1.335531	1.300366
00:00:00.642	1.302564	1.282784	1.282784
00:00:00.643	1.295238	1.219780	1.282051
00:00:00.643	1.325275	1.224176	1.299634
00:00:00.643	1.323810	1.244689	1.302564
00:00:00.644	1.327473	1.246886	1.312088
00:00:00.644	1.331136	1.234432	1.313553
00:00:00.645	1.320147	1.268132	1.306960
00:00:00.645	1.308425	1.295238	1.313553
00:00:00.645	1.297436	1.314286	1.300366
00:00:00.646	1.287179	1.337729	1.309158
00:00:00.646	1.291575	1.353846	1.304029
00:00:00.646	1.293773	1.362637	1.308425
00:00:00.647	1.290842	1.338462	1.302564
00:00:00.647	1.296703	1.306960	1.299634
00:00:00.647	1.309158	1.323810	1.295971
00:00:00.648	1.304029	1.341392	1.300366
00:00:00.648	1.276923	1.295238	1.286447
00:00:00.649	1.298168	1.317216	1.306960
00:00:00.649	1.305495	1.326007	1.309158
00:00:00.649	1.317216	1.304762	1.291575
00:00:00.650	1.369231	1.297436	1.306960
00:00:00.650	1.393407	1.272527	1.306227
00:00:00.650	1.374359	1.256410	1.312088
00:00:00.651	1.333333	1.257143	1.309890
00:00:00.651	1.282784	1.272527	1.300366
00:00:00.651	1.321612	1.314286	1.309890
00:00:00.653	1.336996	1.319414	1.303297
00:00:00.653	1.322344	1.322344	1.300366
00:00:00.653	1.308425	1.348718	1.308425
00:00:00.653	1.287912	1.348718	1.306960
00:00:00.653	1.265934	1.335531	1.298168
00:00:00.657	1.263736	1.323810	1.295971
00:00:00.657	1.272527	1.326740	1.300366
00:00:00.657	1.278388	1.323077	1.300366
00:00:00.657	1.295238	1.321612	1.305495
00:00:00.689	1.317216	1.317949	1.311355
00:00:00.689	1.313553	1.302564	1.315018
00:00:00.689	1.315018	1.286447	1.306227
00:00:00.689	1.327473	1.293040	1.320879
00:00:00.689	1.294505	1.306227	1.315018
00:00:00.690	1.276190	1.352381	1.306227
00:00:00.690	1.301832	1.334799	1.298168
00:00:00.690	1.336996	1.315018	1.306960
00:00:00.691	1.368498	1.288645	1.304762
00:00:00.691	1.387546	1.253480	1.300366
00:00:00.691	1.356044	1.238095	1.287912
00:00:00.691	1.300366	1.242491	1.293040
00:00:00.691	1.257143	1.264469	1.291575
00:00:00.691	1.254212	1.289377	1.294505
00:00:00.695	1.302564	1.317216	1.294505
00:00:00.695	1.325275	1.310623	1.297436
00:00:00.695	1.309158	1.299634	1.298168
00:00:00.695	1.320879	1.318681	1.310623
00:00:00.695	1.312088	1.309158	1.303297
00:00:00.695	1.312088	1.325275	1.309158
00:00:00.695	1.307692	1.336264	1.312088
00:00:00.695	1.306227	1.323077	1.315018
00:00:00.695	1.327473	1.335531	1.312821
00:00:00.695	1.315751	1.316484	1.310623
00:00:00.695	1.306960	1.285714	1.296703
00:00:00.696	1.320879	1.302564	1.311355
00:00:00.696	1.298168	1.284982	1.306227
00:00:00.696	1.286447	1.284982	1.300366
00:00:00.697	1.282784	1.276190	1.283516
00:00:00.697	1.281319	1.291575	1.279853
00:00:00.698	1.290842	1.312821	1.294505
00:00:00.698	1.300366	1.331136	1.295971
00:00:00.698	1.349451	1.357509	1.304762
00:00:00.699	1.359707	1.334799	1.296703
00:00:00.699	1.338462	1.307692	1.307692
00:00:00.699	1.319414	1.304762	1.318681
00:00:00.700	1.268132	1.289377	1.310623
00:00:00.700	1.271062	1.298168	1.315018
00:00:00.700	1.278388	1.284249	1.307692
00:00:00.701	1.290110	1.266667	1.304029
00:00:00.701	1.268864	1.267399	1.308425
00:00:00.701	1.257875	1.315751	1.304762
00:00:00.702	1.335531	1.310623	1.296703
00:00:00.702	1.386813	1.294505	1.298901
00:00:00.703	1.409524	1.302564	1.282051
00:00:00.703	1.353846	1.307692	1.298901
00:00:00.703	1.322344	1.291575	1.291575
00:00:00.704	1.215385	1.296703	1.300366
00:00:00.705	1.217582	1.295971	1.304762
00:00:00.705	1.311355	1.310623	1.296703
00:00:00.736	1.402930	1.308425	1.300366
00:00:00.737	1.446886	1.271062	1.279121
00:00:00.737	1.408059	1.266667	1.274725
00:00:00.738	1.320879	1.290842	1.327473
00:00:00.738	1.253480	1.293773	1.339927
00:00:00.738	1.262271	1.312088	1.337729
00:00:00.739	1.272527	1.339194	1.315751
00:00:00.739	1.260806	1.358242	1.305495
00:00:00.739	1.271795	1.349451	1.318681
00:00:00.740	1.210989	1.300366	1.329670
00:00:00.740	1.188278	1.307692	1.307692
00:00:00.740	1.256410	1.356777	1.312821
00:00:00.741	1.316484	1.320879	1.298168
00:00:00.741	1.334066	1.290842	1.305495
00:00:00.742	1.326740	1.290842	1.295971
00:00:00.742	1.331868	1.272527	1.303297
00:00:00.742	1.336264	1.239560	1.295971
00:00:00.743	1.331136	1.267399	1.289377
00:00:00.743	1.344322	1.317216	1.299634
00:00:00.743	1.329670	1.326740	1.295971
00:00:00.744	1.338462	1.305495	1.310623
00:00:00.744	1.341392	1.310623	1.301832
00:00:00.744	1.326740	1.314286	1.298168
00:00:00.745	1.326740	1.369963	1.299634
00:00:00.745	1.324542	1.394139	1.310623
