timestamp	ch1	ch2	ch3
00:00:00.000	1.328205	1.331868	1.297436
00:00:00.000	1.336264	1.376557	1.295971
00:00:00.001	1.340659	1.302564	1.293773
00:00:00.001	1.328938	1.232234	1.292308
00:00:00.001	1.314286	1.233700	1.306227
00:00:00.002	1.308425	1.251282	1.311355
00:00:00.002	1.306227	1.289377	1.312821
00:00:00.002	1.301832	1.306227	1.309158
00:00:00.003	1.303297	1.297436	1.312088
00:00:00.003	1.304029	1.326007	1.312088
00:00:00.004	1.314286	1.408791	1.309158
00:00:00.004	1.300366	1.378755	1.300366
00:00:00.004	1.302564	1.325275	1.312088
00:00:00.005	1.306227	1.339194	1.301832
00:00:00.005	1.300366	1.269597	1.284249
00:00:00.005	1.316484	1.221245	1.293040
00:00:00.006	1.320879	1.182418	1.282051
00:00:00.006	1.307692	1.171429	1.283516
00:00:00.006	1.301832	1.232234	1.284982
00:00:00.007	1.298901	1.302564	1.279853
00:00:00.007	1.311355	1.349451	1.306960
00:00:00.007	1.317216	1.364103	1.306227
00:00:00.009	1.275458	1.352381	1.310623
00:00:00.009	1.276923	1.332601	1.306960
00:00:00.009	1.306960	1.333333	1.314286
00:00:00.045	1.327473	1.330403	1.323077
00:00:00.045	1.342857	1.310623	1.312821
00:00:00.045	1.328205	1.316484	1.309158
00:00:00.045	1.295238	1.328205	1.314286
00:00:00.045	1.261538	1.347253	1.312821
00:00:00.045	1.238095	1.387546	1.307692
00:00:00.045	1.268132	1.415385	1.303297
00:00:00.045	1.314286	1.370696	1.299634
00:00:00.045	1.329670	1.269597	1.298168
00:00:00.045	1.327473	1.221245	1.298901
00:00:00.045	1.345788	1.220513	1.300366
00:00:00.045	1.342857	1.241026	1.300366
00:00:00.045	1.315751	1.209524	1.296703
00:00:00.045	1.288645	1.224176	1.289377
00:00:00.046	1.302564	1.284249	1.299634
00:00:00.046	1.301099	1.314286	1.292308
00:00:00.046	1.311355	1.336264	1.307692
00:00:00.047	1.307692	1.358974	1.313553
00:00:00.047	1.315751	1.367033	1.313553
00:00:00.048	1.316484	1.331136	1.313553
00:00:00.048	1.314286	1.287179	1.312088
00:00:00.048	1.300366	1.272527	1.306227
00:00:00.049	1.314286	1.276190	1.304762
00:00:00.049	1.306960	1.249817	1.294505
00:00:00.049	1.301832	1.250549	1.282784
00:00:00.050	1.304762	1.298901	1.296703
00:00:00.050	1.309890	1.334066	1.295971
00:00:00.050	1.320879	1.358974	1.309890
00:00:00.051	1.329670	1.354579	1.314286
00:00:00.051	1.308425	1.321612	1.293773
00:00:00.051	1.320879	1.323077	1.304029
00:00:00.052	1.317949	1.320879	1.307692
00:00:00.052	1.298168	1.325275	1.316484
00:00:00.053	1.290110	1.298901	1.306960
00:00:00.053	1.306960	1.313553	1.315018
00:00:00.053	1.300366	1.356777	1.325275
00:00:00.054	1.288645	1.361172	1.319414
00:00:00.054	1.287179	1.323077	1.300366
00:00:00.054	1.301832	1.285714	1.307692
00:00:00.055	1.302564	1.251282	1.302564
00:00:00.055	1.309890	1.282051	1.295971
00:00:00.055	1.323077	1.281319	1.300366
00:00:00.056	1.328205	1.253480	1.298168
00:00:00.056	1.307692	1.283516	1.282784
00:00:00.056	1.313553	1.337729	1.286447
00:00:00.057	1.331136	1.318681	1.291575
00:00:00.057	1.347253	1.315751	1.309158
00:00:00.058	1.323810	1.258608	1.309158
00:00:00.058	1.313553	1.230037	1.297436
00:00:00.058	1.317949	1.268132	1.296703
00:00:00.090	1.319414	1.315751	1.317216
00:00:00.091	1.314286	1.309158	1.306227
00:00:00.091	1.293773	1.328938	1.306960
00:00:00.092	1.298901	1.355311	1.310623
00:00:00.092	1.291575	1.323077	1.304762
00:00:00.092	1.275458	1.330403	1.297436
00:00:00.093	1.272527	1.372161	1.309158
00:00:00.094	1.289377	1.309158	1.299634
00:00:00.094	1.316484	1.270330	1.319414
00:00:00.094	1.304029	1.250549	1.290842
00:00:00.094	1.299634	1.262271	1.300366
00:00:00.094	1.298168	1.298901	1.296703
00:00:00.095	1.293773	1.294505	1.306227
00:00:00.095	1.306960	1.253480	1.290842
00:00:00.095	1.300366	1.306227	1.296703
00:00:00.096	1.307692	1.337729	1.295971
00:00:00.096	1.312088	1.331136	1.305495
00:00:00.097	1.318681	1.304029	1.299634
00:00:00.097	1.313553	1.313553	1.298901
00:00:00.097	1.328205	1.364835	1.311355
00:00:00.098	1.314286	1.280586	1.293040
00:00:00.098	1.318681	1.249817	1.306227
00:00:00.098	1.308425	1.272527	1.302564
00:00:00.099	1.301832	1.312088	1.310623
00:00:00.099	1.302564	1.349451	1.309158
00:00:00.099	1.302564	1.336264	1.295238
00:00:00.100	1.312821	1.317216	1.296703
00:00:00.100	1.304762	1.350916	1.290842
00:00:00.100	1.309890	1.377289	1.297436
00:00:00.103	1.320147	1.324542	1.305495
00:00:00.103	1.308425	1.241026	1.302564
00:00:00.103	1.315751	1.213919	1.301832
00:00:00.103	1.298168	1.216117	1.294505
00:00:00.103	1.301832	1.241026	1.308425
00:00:00.105	1.296703	1.254945	1.317949
00:00:00.105	1.287179	1.267399	1.305495
00:00:00.105	1.304762	1.315751	1.309158
00:00:00.105	1.334066	1.336264	1.298901
00:00:00.105	1.348718	1.318681	1.302564
00:00:00.105	1.340659	1.339194	1.299634
00:00:00.105	1.284982	1.333333	1.302564
00:00:00.105	1.265201	1.353846	1.300366
00:00:00.105	1.271062	1.385348	1.295971
00:00:00.109	1.342125	1.371429	1.306227
00:00:00.109	1.381685	1.356777	1.307692
00:00:00.109	1.356777	1.328938	1.300366
00:00:00.109	1.317216	1.306227	1.309158
00:00:00.109	1.287912	1.334066	1.317216
00:00:00.109	1.266667	1.338462	1.320879
00:00:00.109	1.265201	1.333333	1.306227
00:00:00.141	1.276190	1.260073	1.287179
00:00:00.141	1.290842	1.205861	1.298901
00:00:00.141	1.309158	1.196337	1.313553
00:00:00.141	1.306960	1.260073	1.306227
00:00:00.142	1.296703	1.257143	1.296703
00:00:00.142	1.301832	1.222711	1.294505
00:00:00.142	1.312088	1.254212	1.302564
00:00:00.143	1.304029	1.290110	1.294505
00:00:00.143	1.323077	1.322344	1.301099
00:00:00.143	1.318681	1.298168	1.295971
00:00:00.144	1.323077	1.282051	1.300366
00:00:00.144	1.326740	1.285714	1.305495
00:00:00.144	1.314286	1.306227	1.286447
00:00:00.145	1.310623	1.331868	1.304029
00:00:00.146	1.304762	1.323810	1.307692
00:00:00.146	1.300366	1.331136	1.306227
00:00:00.146	1.301099	1.343590	1.318681
00:00:00.146	1.311355	1.331136	1.310623
00:00:00.147	1.306960	1.304029	1.301099
00:00:00.147	1.321612	1.319414	1.317216
00:00:00.147	1.317949	1.330403	1.315751
00:00:00.148	1.304029	1.349451	1.305495
00:00:00.148	1.306227	1.369963	1.306227
00:00:00.148	1.309890	1.344322	1.300366
00:00:00.149	1.317949	1.322344	1.301832
00:00:00.149	1.320879	1.301099	1.305495
00:00:00.149	1.309158	1.296703	1.297436
00:00:00.150	1.300366	1.303297	1.298168
00:00:00.150	1.309158	1.284982	1.298901
00:00:00.151	1.304029	1.258608	1.303297
00:00:00.151	1.312088	1.268132	1.296703
00:00:00.151	1.313553	1.287912	1.301832
00:00:00.152	1.315751	1.297436	1.309158
00:00:00.152	1.315018	1.269597	1.312088
00:00:00.152	1.293773	1.260073	1.300366
00:00:00.153	1.288645	1.297436	1.299634
00:00:00.153	1.284249	1.309890	1.306960
00:00:00.153	1.297436	1.328938	1.307692
00:00:00.154	1.309158	1.331868	1.306960
00:00:00.154	1.311355	1.323077	1.298168
00:00:00.154	1.304762	1.317216	1.298168
00:00:00.155	1.313553	1.326007	1.305495
00:00:00.155	1.317949	1.321612	1.303297
00:00:00.156	1.323810	1.320879	1.309158
00:00:00.156	1.322344	1.358242	1.300366
00:00:00.156	1.320147	1.377289	1.304762
00:00:00.157	1.311355	1.372161	1.305495
00:00:00.157	1.322344	1.357509	1.292308
00:00:00.157	1.320879	1.350183	1.293773
00:00:00.158	1.318681	1.323810	1.313553
00:00:00.190	1.310623	1.260073	1.312088
00:00:00.190	1.304762	1.221978	1.308425
00:00:00.191	1.307692	1.196337	1.303297
00:00:00.191	1.287912	1.126007	1.297436
00:00:00.191	1.285714	1.099634	1.282784
00:00:00.192	1.293040	1.197070	1.298901
00:00:00.192	1.297436	1.336264	1.290842
00:00:00.192	1.306960	1.379487	1.292308
00:00:00.193	1.306960	1.356044	1.281319
00:00:00.193	1.312821	1.327473	1.291575
00:00:00.193	1.315018	1.346520	1.300366
00:00:00.194	1.302564	1.377289	1.304762
00:00:00.194	1.312088	1.370696	1.312821
00:00:00.195	1.311355	1.303297	1.309890
00:00:00.195	1.319414	1.230037	1.307692
00:00:00.195	1.328938	1.298901	1.315018
00:00:00.196	1.323810	1.335531	1.314286
00:00:00.196	1.325275	1.313553	1.314286
00:00:00.196	1.328938	1.273260	1.305495
00:00:00.197	1.314286	1.271795	1.312821
00:00:00.197	1.306227	1.312088	1.300366
00:00:00.200	1.288645	1.325275	1.298901
00:00:00.200	1.288645	1.332601	1.300366
00:00:00.200	1.287179	1.334799	1.299634
00:00:00.200	1.274725	1.405861	1.288645
00:00:00.200	1.300366	1.397802	1.300366
00:00:00.200	1.293040	1.279853	1.293040
00:00:00.201	1.304762	1.200733	1.293040
00:00:00.201	1.303297	1.203663	1.290842
00:00:00.201	1.320147	1.263736	1.300366
00:00:00.201	1.312821	1.315751	1.306227
00:00:00.202	1.292308	1.307692	1.300366
00:00:00.202	1.292308	1.326740	1.295971
00:00:00.202	1.316484	1.334066	1.307692
00:00:00.202	1.357509	1.314286	1.316484
00:00:00.202	1.372894	1.297436	1.315018
00:00:00.206	1.344322	1.301832	1.317949
00:00:00.206	1.312088	1.302564	1.320879
00:00:00.206	1.276923	1.285714	1.330403
00:00:00.206	1.288645	1.276190	1.311355
00:00:00.206	1.334799	1.279853	1.296703
00:00:00.206	1.388278	1.283516	1.293040
00:00:00.206	1.362637	1.324542	1.296703
00:00:00.206	1.306227	1.338462	1.293040
00:00:00.206	1.249817	1.330403	1.287912
00:00:00.206	1.252747	1.321612	1.286447
00:00:00.206	1.271795	1.320879	1.296703
00:00:00.207	1.272527	1.315018	1.303297
00:00:00.207	1.279121	1.310623	1.306960
00:00:00.207	1.279121	1.301832	1.296703
00:00:00.240	1.294505	1.314286	1.320147
00:00:00.240	1.318681	1.314286	1.313553
00:00:00.240	1.353114	1.338462	1.316484
00:00:00.241	1.332601	1.344322	1.317949
00:00:00.241	1.322344	1.358974	1.315018
00:00:00.241	1.326740	1.414652	1.316484
00:00:00.242	1.327473	1.410989	1.309158
00:00:00.242	1.323810	1.423443	1.304762
00:00:00.242	1.313553	1.304762	1.288645
00:00:00.243	1.315751	1.189744	1.298901
00:00:00.243	1.304762	1.082051	1.291575
00:00:00.244	1.306227	1.079853	1.293040
00:00:00.244	1.304029	1.144322	1.288645
00:00:00.244	1.318681	1.243956	1.295971
00:00:00.245	1.310623	1.301099	1.297436
00:00:00.245	1.309890	1.336996	1.312088
00:00:00.245	1.298168	1.353114	1.309158
00:00:00.246	1.279121	1.331868	1.294505
00:00:00.246	1.267399	1.299634	1.303297
00:00:00.246	1.267399	1.304762	1.305495
00:00:00.247	1.281319	1.326007	1.308425
00:00:00.247	1.314286	1.350916	1.312088
00:00:00.247	1.322344	1.372894	1.317949
00:00:00.248	1.334066	1.367766	1.310623
00:00:00.248	1.316484	1.367766	1.292308
00:00:00.249	1.338462	1.391941	1.287179
00:00:00.249	1.331868	1.327473	1.288645
00:00:00.249	1.323810	1.271795	1.291575
00:00:00.250	1.331868	1.285714	1.290842
00:00:00.250	1.326740	1.317949	1.279853
00:00:00.250	1.331136	1.394139	1.303297
00:00:00.251	1.314286	1.449084	1.300366
00:00:00.251	1.296703	1.300366	1.331136
00:00:00.251	1.295971	1.185348	1.336996
00:00:00.252	1.283516	1.140659	1.316484
00:00:00.252	1.294505	1.145055	1.317216
00:00:00.252	1.306227	1.161172	1.300366
00:00:00.253	1.326740	1.207326	1.306227
00:00:00.253	1.331136	1.253480	1.291575
00:00:00.254	1.331868	1.326007	1.271062
00:00:00.254	1.320147	1.402930	1.336996
00:00:00.254	1.323077	1.407326	1.339194
00:00:00.255	1.300366	1.383150	1.309158
00:00:00.255	1.305495	1.369231	1.305495
00:00:00.255	1.298901	1.353846	1.290842
00:00:00.256	1.268864	1.367766	1.296703
00:00:00.256	1.281319	1.364835	1.293040
00:00:00.256	1.304762	1.339194	1.293773
00:00:00.257	1.305495	1.308425	1.291575
00:00:00.257	1.301832	1.293773	1.303297
00:00:00.289	1.313553	1.295971	1.307692
00:00:00.290	1.312821	1.295971	1.319414
00:00:00.290	1.306227	1.290842	1.318681
00:00:00.290	1.304762	1.272527	1.320879
00:00:00.291	1.310623	1.341392	1.319414
00:00:00.291	1.307692	1.425641	1.305495
00:00:00.291	1.316484	1.368498	1.294505
00:00:00.292	1.320879	1.287179	1.290110
00:00:00.292	1.309890	1.223443	1.293040
00:00:00.293	1.313553	1.224176	1.297436
00:00:00.293	1.305495	1.177289	1.292308
00:00:00.293	1.315018	1.165568	1.285714
00:00:00.295	1.317949	1.202198	1.283516
00:00:00.295	1.321612	1.220513	1.298901
00:00:00.295	1.297436	1.293040	1.298168
00:00:00.296	1.313553	1.336264	1.298168
00:00:00.296	1.315018	1.356044	1.315018
00:00:00.296	1.301832	1.353846	1.313553
00:00:00.296	1.320147	1.368498	1.321612
00:00:00.298	1.314286	1.405128	1.320147
00:00:00.298	1.331136	1.430769	1.323810
00:00:00.298	1.310623	1.369963	1.297436
00:00:00.298	1.307692	1.295238	1.314286
00:00:00.298	1.298168	1.285714	1.312821
00:00:00.298	1.280586	1.278388	1.293773
00:00:00.298	1.296703	1.284249	1.298901
00:00:00.302	1.288645	1.276190	1.294505
00:00:00.302	1.290110	1.279121	1.288645
00:00:00.302	1.294505	1.304762	1.281319
00:00:00.302	1.336264	1.331868	1.300366
00:00:00.302	1.353114	1.320879	1.302564
00:00:00.302	1.375092	1.315751	1.313553
00:00:00.302	1.328938	1.297436	1.304029
00:00:00.302	1.287912	1.284249	1.306227
00:00:00.302	1.268132	1.265201	1.299634
00:00:00.303	1.241026	1.262271	1.299634
00:00:00.304	1.286447	1.287912	1.309890
00:00:00.304	1.300366	1.292308	1.308425
00:00:00.304	1.309158	1.300366	1.297436
00:00:00.304	1.323810	1.309890	1.288645
00:00:00.304	1.325275	1.316484	1.291575
00:00:00.304	1.331136	1.339194	1.297436
00:00:00.304	1.347253	1.346520	1.317949
00:00:00.305	1.313553	1.327473	1.320879
00:00:00.305	1.320147	1.324542	1.310623
00:00:00.305	1.321612	1.314286	1.279121
00:00:00.306	1.306960	1.302564	1.291575
00:00:00.306	1.302564	1.300366	1.295971
00:00:00.306	1.301832	1.295238	1.300366
00:00:00.307	1.306960	1.290110	1.298168
00:00:00.339	1.317949	1.298168	1.309158
00:00:00.339	1.295238	1.290842	1.306227
00:00:00.340	1.297436	1.305495	1.312821
00:00:00.340	1.296703	1.297436	1.316484
00:00:00.340	1.301099	1.296703	1.309158
00:00:00.341	1.312821	1.301832	1.312088
00:00:00.341	1.298901	1.300366	1.300366
00:00:00.342	1.306227	1.330403	1.305495
00:00:00.342	1.295971	1.341392	1.295971
00:00:00.342	1.287179	1.364103	1.288645
00:00:00.343	1.295971	1.442491	1.294505
00:00:00.343	1.303297	1.425641	1.292308
00:00:00.343	1.312821	1.380952	1.276923
00:00:00.344	1.332601	1.298901	1.289377
00:00:00.344	1.322344	1.161172	1.292308
00:00:00.344	1.330403	1.147985	1.327473
00:00:00.345	1.315018	1.134066	1.315018
00:00:00.345	1.310623	1.133333	1.309158
00:00:00.345	1.295238	1.164103	1.308425
00:00:00.346	1.297436	1.260806	1.313553
00:00:00.346	1.302564	1.347253	1.314286
00:00:00.347	1.284249	1.363370	1.309158
00:00:00.347	1.287179	1.345788	1.298168
00:00:00.347	1.337729	1.358974	1.309890
00:00:00.348	1.318681	1.348718	1.307692
00:00:00.348	1.308425	1.333333	1.292308
00:00:00.348	1.327473	1.337729	1.306960
00:00:00.349	1.329670	1.320147	1.303297
00:00:00.349	1.310623	1.318681	1.277656
00:00:00.349	1.318681	1.326007	1.296703
00:00:00.350	1.323077	1.311355	1.307692
00:00:00.350	1.317949	1.316484	1.329670
00:00:00.350	1.331868	1.326740	1.352381
00:00:00.351	1.321612	1.311355	1.328938
00:00:00.351	1.336264	1.316484	1.298168
00:00:00.352	1.332601	1.313553	1.274725
00:00:00.352	1.306227	1.295238	1.249084
00:00:00.352	1.253480	1.307692	1.295971
00:00:00.353	1.250549	1.300366	1.305495
00:00:00.353	1.262271	1.290110	1.279121
00:00:00.353	1.280586	1.303297	1.291575
00:00:00.354	1.265201	1.294505	1.276923
00:00:00.355	1.268864	1.310623	1.323077
00:00:00.355	1.291575	1.331136	1.323810
00:00:00.355	1.300366	1.326740	1.306227
00:00:00.355	1.352381	1.317216	1.311355
00:00:00.355	1.403663	1.307692	1.300366
00:00:00.356	1.338462	1.280586	1.290842
00:00:00.356	1.323810	1.302564	1.308425
00:00:00.357	1.306227	1.295971	1.304762
00:00:00.389	1.306960	1.293040	1.308425
00:00:00.389	1.318681	1.298901	1.310623
00:00:00.389	1.312088	1.287912	1.308425
00:00:00.390	1.312088	1.292308	1.321612
00:00:00.391	1.306227	1.301099	1.316484
00:00:00.391	1.293040	1.288645	1.297436
00:00:00.391	1.300366	1.294505	1.296703
00:00:00.391	1.300366	1.309158	1.300366
00:00:00.393	1.287179	1.301832	1.306227
00:00:00.393	1.280586	1.303297	1.309890
00:00:00.393	1.293040	1.297436	1.293773
00:00:00.393	1.299634	1.290110	1.276923
00:00:00.393	1.312821	1.309158	1.298901
00:00:00.393	1.322344	1.304029	1.292308
00:00:00.394	1.309158	1.315751	1.298168
00:00:00.394	1.315751	1.314286	1.297436
00:00:00.394	1.347253	1.304029	1.282784
00:00:00.395	1.364835	1.317949	1.311355
00:00:00.395	1.354579	1.310623	1.311355
00:00:00.399	1.312088	1.300366	1.310623
00:00:00.399	1.288645	1.306960	1.312088
00:00:00.399	1.286447	1.299634	1.312821
00:00:00.399	1.305495	1.292308	1.330403
00:00:00.399	1.317949	1.298168	1.318681
00:00:00.399	1.324542	1.305495	1.306227
00:00:00.399	1.308425	1.300366	1.306227
00:00:00.399	1.304029	1.296703	1.287179
00:00:00.399	1.295971	1.301099	1.273260
00:00:00.399	1.299634	1.321612	1.278388
00:00:00.399	1.273260	1.324542	1.299634
00:00:00.399	1.301832	1.315751	1.320879
00:00:00.400	1.304029	1.309890	1.304029
00:00:00.401	1.314286	1.307692	1.315018
00:00:00.401	1.309158	1.304762	1.323810
00:00:00.401	1.295238	1.291575	1.313553
00:00:00.401	1.305495	1.293773	1.312088
00:00:00.402	1.312088	1.301832	1.306960
00:00:00.402	1.308425	1.304029	1.300366
00:00:00.402	1.255678	1.290842	1.304029
00:00:00.403	1.253480	1.292308	1.305495
00:00:00.403	1.306960	1.308425	1.312088
00:00:00.403	1.327473	1.311355	1.306960
00:00:00.404	1.362637	1.302564	1.295971
00:00:00.404	1.350183	1.314286	1.309890
00:00:00.404	1.322344	1.320147	1.311355
00:00:00.405	1.309158	1.298901	1.289377
00:00:00.405	1.317216	1.312821	1.304762
00:00:00.406	1.316484	1.311355	1.306960
00:00:00.407	1.305495	1.303297	1.300366
00:00:00.407	1.310623	1.312821	1.304762
00:00:00.438	1.323810	1.306227	1.303297
00:00:00.439	1.318681	1.295238	1.288645
00:00:00.439	1.298901	1.282784	1.300366
00:00:00.440	1.269597	1.285714	1.295971
00:00:00.440	1.301099	1.299634	1.300366
00:00:00.440	1.293773	1.291575	1.287179
00:00:00.441	1.303297	1.283516	1.298901
00:00:00.441	1.320879	1.288645	1.320879
00:00:00.441	1.310623	1.299634	1.341392
00:00:00.442	1.315018	1.306960	1.309158
00:00:00.442	1.304762	1.304029	1.287912
00:00:00.442	1.307692	1.315751	1.298901
00:00:00.443	1.310623	1.312088	1.293040
00:00:00.443	1.308425	1.316484	1.281319
00:00:00.443	1.312088	1.312088	1.285714
00:00:00.444	1.313553	1.315751	1.307692
00:00:00.444	1.295971	1.299634	1.313553
00:00:00.445	1.290110	1.293773	1.304762
00:00:00.445	1.296703	1.296703	1.309158
00:00:00.445	1.291575	1.281319	1.304029
00:00:00.446	1.292308	1.292308	1.312821
00:00:00.446	1.253480	1.287179	1.315018
00:00:00.446	1.292308	1.292308	1.307692
00:00:00.447	1.320879	1.298168	1.300366
00:00:00.447	1.353114	1.306227	1.314286
00:00:00.447	1.342857	1.312821	1.310623
00:00:00.448	1.331136	1.322344	1.296703
00:00:00.448	1.304762	1.324542	1.285714
00:00:00.448	1.305495	1.332601	1.286447
00:00:00.449	1.304762	1.324542	1.278388
00:00:00.449	1.295238	1.312821	1.279853
00:00:00.450	1.287912	1.309158	1.292308
00:00:00.450	1.289377	1.294505	1.298901
00:00:00.450	1.294505	1.279853	1.306227
00:00:00.451	1.362637	1.287912	1.320879
00:00:00.451	1.370696	1.289377	1.320879
00:00:00.451	1.295238	1.287179	1.314286
00:00:00.452	1.283516	1.295238	1.300366
00:00:00.452	1.304029	1.304762	1.312821
00:00:00.452	1.296703	1.304762	1.308425
00:00:00.453	1.298168	1.312821	1.308425
00:00:00.453	1.301832	1.323810	1.306227
00:00:00.453	1.316484	1.317949	1.291575
00:00:00.455	1.384615	1.322344	1.298901
00:00:00.455	1.332601	1.319414	1.297436
00:00:00.458	1.303297	1.315751	1.292308
00:00:00.458	1.298901	1.310623	1.293773
00:00:00.458	1.297436	1.304029	1.298168
00:00:00.458	1.295971	1.302564	1.308425
00:00:00.458	1.295238	1.292308	1.299634
00:00:00.489	1.301832	1.293040	1.299634
00:00:00.489	1.297436	1.285714	1.305495
00:00:00.489	1.292308	1.290110	1.310623
00:00:00.489	1.299634	1.296703	1.304029
00:00:00.493	1.303297	1.323810	1.312821
00:00:00.493	1.298901	1.312821	1.304762
00:00:00.493	1.288645	1.315751	1.305495
00:00:00.493	1.281319	1.315018	1.303297
00:00:00.493	1.304029	1.298901	1.304029
00:00:00.493	1.367033	1.309890	1.307692
00:00:00.493	1.362637	1.309158	1.299634
00:00:00.493	1.317949	1.287912	1.287912
00:00:00.493	1.306960	1.300366	1.299634
00:00:00.493	1.306227	1.299634	1.299634
00:00:00.493	1.300366	1.297436	1.304762
00:00:00.494	1.299634	1.290842	1.297436
00:00:00.494	1.293040	1.290110	1.296703
00:00:00.494	1.294505	1.287179	1.295971
00:00:00.495	1.306960	1.299634	1.315018
00:00:00.495	1.300366	1.304762	1.313553
00:00:00.495	1.297436	1.301832	1.303297
00:00:00.496	1.308425	1.321612	1.312821
00:00:00.496	1.306960	1.315018	1.303297
00:00:00.496	1.305495	1.317949	1.310623
00:00:00.497	1.310623	1.309158	1.308425
00:00:00.497	1.308425	1.293773	1.298168
00:00:00.497	1.320147	1.294505	1.289377
00:00:00.498	1.313553	1.290110	1.286447
00:00:00.498	1.313553	1.293040	1.287179
00:00:00.499	1.321612	1.302564	1.289377
00:00:00.499	1.304762	1.298901	1.284982
00:00:00.499	1.300366	1.309158	1.300366
00:00:00.500	1.301832	1.306960	1.306227
00:00:00.500	1.306227	1.300366	1.309158
00:00:00.500	1.320147	1.303297	1.310623
00:00:00.501	1.317216	1.304029	1.311355
00:00:00.501	1.302564	1.293773	1.309890
00:00:00.501	1.306227	1.312821	1.312088
00:00:00.502	1.312088	1.315751	1.313553
00:00:00.502	1.308425	1.304762	1.316484
00:00:00.502	1.286447	1.320879	1.315751
00:00:00.503	1.290110	1.295238	1.309158
00:00:00.503	1.358242	1.287179	1.309890
00:00:00.504	1.345055	1.293773	1.312088
00:00:00.504	1.333333	1.293040	1.302564
00:00:00.504	1.296703	1.307692	1.297436
00:00:00.505	1.281319	1.308425	1.288645
00:00:00.505	1.309158	1.321612	1.295971
00:00:00.505	1.296703	1.293773	1.293773
00:00:00.506	1.306960	1.306960	1.307692
00:00:00.538	1.306960	1.318681	1.304762
00:00:00.538	1.286447	1.324542	1.309890
00:00:00.539	1.274725	1.318681	1.307692
00:00:00.539	1.290842	1.303297	1.305495
00:00:00.539	1.323810	1.300366	1.311355
00:00:00.540	1.336264	1.312088	1.309158
00:00:00.540	1.326740	1.300366	1.295971
00:00:00.540	1.300366	1.305495	1.301832
00:00:00.541	1.300366	1.315751	1.290842
00:00:00.541	1.304029	1.305495	1.312821
00:00:00.541	1.309890	1.309158	1.322344
00:00:00.542	1.320147	1.298901	1.309158
00:00:00.543	1.319414	1.294505	1.304762
00:00:00.543	1.302564	1.304029	1.286447
00:00:00.543	1.312821	1.321612	1.291575
00:00:00.543	1.336264	1.322344	1.301832
00:00:00.544	1.322344	1.298901	1.299634
00:00:00.544	1.306960	1.291575	1.312821
00:00:00.544	1.290110	1.279853	1.296703
00:00:00.545	1.309158	1.306227	1.304762
00:00:00.545	1.293773	1.292308	1.303297
00:00:00.545	1.302564	1.294505	1.306960
00:00:00.546	1.306227	1.306960	1.317216
00:00:00.546	1.301832	1.309158	1.311355
00:00:00.546	1.304762	1.311355	1.306227
00:00:00.547	1.309890	1.312088	1.301832
00:00:00.547	1.310623	1.304762	1.296703
00:00:00.548	1.315751	1.291575	1.290110
00:00:00.548	1.308425	1.301099	1.293040
00:00:00.548	1.317216	1.305495	1.299634
00:00:00.549	1.301832	1.302564	1.289377
00:00:00.549	1.316484	1.312088	1.306227
00:00:00.549	1.314286	1.302564	1.305495
00:00:00.550	1.317949	1.314286	1.306227
00:00:00.550	1.315751	1.323810	1.314286
00:00:00.550	1.312088	1.312821	1.313553
00:00:00.551	1.307692	1.306960	1.317216
00:00:00.551	1.297436	1.303297	1.311355
00:00:00.551	1.295971	1.314286	1.311355
00:00:00.554	1.304029	1.318681	1.303297
00:00:00.554	1.306960	1.308425	1.309890
00:00:00.554	1.297436	1.291575	1.295238
00:00:00.554	1.307692	1.293773	1.304029
00:00:00.554	1.316484	1.291575	1.295238
00:00:00.554	1.312821	1.268864	1.294505
00:00:00.554	1.328938	1.273993	1.287912
00:00:00.554	1.309890	1.282784	1.297436
00:00:00.558	1.297436	1.284982	1.300366
00:00:00.558	1.306960	1.313553	1.305495
00:00:00.558	1.311355	1.320879	1.297436
00:00:00.591	1.312821	1.321612	1.305495
00:00:00.591	1.305495	1.315751	1.310623
00:00:00.591	1.309890	1.311355	1.319414
00:00:00.591	1.309890	1.309158	1.312821
00:00:00.591	1.304029	1.317216	1.302564
00:00:00.591	1.307692	1.339194	1.312088
00:00:00.591	1.312088	1.345055	1.308425
00:00:00.591	1.286447	1.328205	1.292308
00:00:00.591	1.300366	1.329670	1.298901
00:00:00.591	1.319414	1.297436	1.295238
00:00:00.591	1.309890	1.276923	1.288645
00:00:00.593	1.323810	1.268864	1.289377
00:00:00.593	1.316484	1.256410	1.287179
00:00:00.593	1.329670	1.279121	1.294505
00:00:00.593	1.321612	1.284982	1.282784
00:00:00.593	1.261538	1.289377	1.289377
00:00:00.593	1.290842	1.295238	1.299634
00:00:00.594	1.306227	1.301099	1.304762
00:00:00.594	1.298901	1.312088	1.308425
00:00:00.595	1.282051	1.314286	1.305495
00:00:00.595	1.323810	1.318681	1.322344
00:00:00.595	1.335531	1.308425	1.330403
00:00:00.595	1.307692	1.281319	1.312088
00:00:00.596	1.313553	1.302564	1.315018
00:00:00.596	1.318681	1.313553	1.312821
00:00:00.597	1.309158	1.307692	1.310623
00:00:00.597	1.315018	1.309158	1.300366
00:00:00.597	1.310623	1.304029	1.287179
00:00:00.598	1.315018	1.312821	1.294505
00:00:00.598	1.320879	1.309890	1.298168
00:00:00.598	1.323810	1.312088	1.303297
00:00:00.599	1.290110	1.301832	1.292308
00:00:00.599	1.289377	1.299634	1.293040
00:00:00.599	1.279121	1.295238	1.289377
00:00:00.600	1.287912	1.312821	1.322344
00:00:00.600	1.286447	1.309158	1.319414
00:00:00.600	1.287179	1.293040	1.301832
00:00:00.601	1.316484	1.297436	1.315751
00:00:00.601	1.386813	1.299634	1.311355
00:00:00.602	1.379487	1.306227	1.317216
00:00:00.602	1.329670	1.311355	1.303297
00:00:00.602	1.288645	1.298901	1.298901
00:00:00.603	1.323077	1.312821	1.304762
00:00:00.603	1.318681	1.303297	1.298168
00:00:00.603	1.296703	1.301832	1.299634
00:00:00.604	1.298901	1.294505	1.303297
00:00:00.604	1.296703	1.292308	1.286447
00:00:00.604	1.309158	1.309158	1.298168
00:00:00.605	1.306960	1.312088	1.299634
00:00:00.605	1.298168	1.303297	1.298168
00:00:00.637	1.300366	1.295971	1.300366
00:00:00.638	1.290842	1.296703	1.294505
00:00:00.638	1.302564	1.306960	1.311355
00:00:00.638	1.306227	1.320147	1.312088
00:00:00.639	1.309158	1.329670	1.314286
00:00:00.639	1.309158	1.307692	1.317216
00:00:00.639	1.304762	1.281319	1.311355
00:00:00.640	1.304029	1.285714	1.311355
00:00:00.640	1.303297	1.289377	1.306227
00:00:00.641	1.302564	1.298168	1.299634
00:00:00.641	1.308425	1.306960	1.299634
00:00:00.641	1.306227	1.310623	1.291575
00:00:00.642	1.314286	1.329670	1.296703
00:00:00.642	1.308425	1.326007	1.290842
00:00:00.642	1.322344	1.345055	1.300366
00:00:00.643	1.322344	1.340659	1.308425
00:00:00.643	1.309890	1.314286	1.303297
00:00:00.643	1.307692	1.290110	1.308425
00:00:00.644	1.309890	1.298168	1.317216
00:00:00.644	1.298168	1.304029	1.317949
00:00:00.644	1.306227	1.304029	1.317949
00:00:00.645	1.305495	1.299634	1.321612
00:00:00.645	1.303297	1.284982	1.312088
00:00:00.648	1.297436	1.243956	1.294505
00:00:00.648	1.309158	1.260806	1.298901
