timestamp	ch1	ch2	ch3
00:00:00.000	1.321612	1.300366	1.315751
00:00:00.000	1.328205	1.320147	1.300366
00:00:00.001	1.315018	1.295971	1.315751
00:00:00.001	1.315018	1.268132	1.300366
00:00:00.001	1.324542	1.260806	1.293040
00:00:00.034	1.345055	1.293773	1.306227
00:00:00.034	1.344322	1.298168	1.300366
00:00:00.034	1.321612	1.277656	1.298901
00:00:00.035	1.298901	1.288645	1.301832
00:00:00.035	1.273260	1.315018	1.294505
00:00:00.035	1.258608	1.328938	1.282051
00:00:00.036	1.263004	1.325275	1.289377
00:00:00.036	1.294505	1.332601	1.303297
00:00:00.036	1.315018	1.328205	1.300366
00:00:00.037	1.314286	1.313553	1.309158
00:00:00.037	1.300366	1.284982	1.315751
00:00:00.038	1.281319	1.277656	1.310623
00:00:00.038	1.267399	1.276190	1.312088
00:00:00.038	1.287179	1.282784	1.308425
00:00:00.039	1.313553	1.276923	1.310623
00:00:00.039	1.341392	1.293040	1.311355
00:00:00.039	1.350183	1.306960	1.295238
00:00:00.040	1.350183	1.334066	1.305495
00:00:00.040	1.322344	1.327473	1.295238
00:00:00.040	1.325275	1.315751	1.291575
00:00:00.041	1.324542	1.345788	1.294505
00:00:00.041	1.320147	1.372161	1.287179
00:00:00.042	1.322344	1.393407	1.304029
00:00:00.042	1.310623	1.332601	1.287912
00:00:00.043	1.298901	1.272527	1.298901
00:00:00.043	1.306960	1.244689	1.315751
00:00:00.043	1.304029	1.197070	1.293040
00:00:00.043	1.310623	1.216850	1.315751
00:00:00.044	1.301832	1.214652	1.317949
00:00:00.044	1.304762	1.225641	1.306960
00:00:00.044	1.317216	1.295971	1.311355
00:00:00.045	1.312821	1.347253	1.300366
00:00:00.045	1.320879	1.381685	1.316484
00:00:00.045	1.304762	1.373626	1.309158
00:00:00.046	1.303297	1.367033	1.302564
00:00:00.046	1.293773	1.350916	1.287912
00:00:00.048	1.311355	1.369963	1.302564
00:00:00.048	1.323810	1.365568	1.305495
00:00:00.048	1.306227	1.297436	1.292308
00:00:00.048	1.317949	1.210989	1.279853
00:00:00.048	1.304029	1.216850	1.276923
00:00:00.048	1.304762	1.256410	1.290842
00:00:00.049	1.317949	1.252747	1.298901
00:00:00.049	1.306227	1.285714	1.302564
00:00:00.049	1.312088	1.320879	1.317216
00:00:00.050	1.295238	1.318681	1.319414
00:00:00.050	1.290842	1.312088	1.312088
00:00:00.050	1.317949	1.298901	1.313553
00:00:00.052	1.295238	1.281319	1.293040
00:00:00.052	1.291575	1.310623	1.310623
00:00:00.083	1.253480	1.276190	1.297436
00:00:00.085	1.256410	1.262271	1.285714
00:00:00.085	1.280586	1.337729	1.298168
00:00:00.085	1.305495	1.368498	1.295971
00:00:00.085	1.339927	1.342857	1.300366
00:00:00.085	1.373626	1.315018	1.298901
00:00:00.086	1.344322	1.272527	1.299634
00:00:00.086	1.323810	1.291575	1.297436
00:00:00.086	1.275458	1.296703	1.306960
00:00:00.089	1.266667	1.261538	1.308425
00:00:00.089	1.282784	1.273993	1.312088
00:00:00.089	1.315018	1.311355	1.315018
00:00:00.089	1.326007	1.325275	1.314286
00:00:00.089	1.323810	1.338462	1.317949
00:00:00.089	1.320147	1.338462	1.314286
00:00:00.089	1.328205	1.334066	1.309890
00:00:00.089	1.323810	1.330403	1.309158
00:00:00.089	1.312088	1.297436	1.295971
00:00:00.094	1.316484	1.282784	1.293773
00:00:00.094	1.339194	1.287912	1.298168
00:00:00.094	1.323810	1.290110	1.282051
00:00:00.094	1.309158	1.301099	1.298901
00:00:00.094	1.300366	1.314286	1.302564
00:00:00.094	1.292308	1.312821	1.289377
00:00:00.094	1.288645	1.334799	1.299634
00:00:00.094	1.265201	1.323810	1.303297
00:00:00.094	1.272527	1.320879	1.302564
00:00:00.094	1.295238	1.318681	1.309158
00:00:00.094	1.334066	1.306960	1.309890
00:00:00.094	1.345788	1.309158	1.318681
00:00:00.094	1.334799	1.287179	1.314286
00:00:00.096	1.333333	1.307692	1.311355
00:00:00.096	1.292308	1.319414	1.300366
00:00:00.096	1.263004	1.294505	1.286447
00:00:00.096	1.273993	1.290842	1.304762
00:00:00.096	1.298168	1.301832	1.304762
00:00:00.096	1.315018	1.318681	1.299634
00:00:00.097	1.310623	1.279853	1.287912
00:00:00.097	1.315018	1.248352	1.281319
00:00:00.097	1.303297	1.272527	1.287179
00:00:00.098	1.297436	1.298901	1.298901
00:00:00.098	1.286447	1.312088	1.312088
00:00:00.098	1.298168	1.308425	1.308425
00:00:00.099	1.313553	1.279121	1.295971
00:00:00.099	1.329670	1.304762	1.317949
00:00:00.099	1.339927	1.366300	1.318681
00:00:00.100	1.331136	1.355311	1.309158
00:00:00.100	1.328205	1.318681	1.318681
00:00:00.101	1.327473	1.290842	1.315751
00:00:00.101	1.327473	1.271795	1.309158
00:00:00.133	1.321612	1.290842	1.307692
00:00:00.133	1.309890	1.271795	1.297436
00:00:00.134	1.323810	1.255678	1.297436
00:00:00.134	1.330403	1.258608	1.299634
00:00:00.135	1.306960	1.270330	1.282784
00:00:00.135	1.311355	1.297436	1.290842
00:00:00.135	1.293773	1.287179	1.290842
00:00:00.136	1.307692	1.298168	1.290842
00:00:00.136	1.322344	1.332601	1.300366
00:00:00.136	1.299634	1.366300	1.302564
00:00:00.137	1.293773	1.367766	1.315018
00:00:00.137	1.290110	1.326007	1.320879
00:00:00.137	1.295238	1.271795	1.302564
00:00:00.138	1.308425	1.286447	1.317216
00:00:00.138	1.298901	1.287912	1.305495
00:00:00.138	1.291575	1.288645	1.311355
00:00:00.139	1.300366	1.312821	1.308425
00:00:00.139	1.271062	1.364103	1.305495
00:00:00.140	1.268864	1.389011	1.300366
00:00:00.140	1.285714	1.353846	1.288645
00:00:00.140	1.322344	1.323077	1.296703
00:00:00.141	1.344322	1.296703	1.300366
00:00:00.141	1.324542	1.282051	1.300366
00:00:00.141	1.335531	1.253480	1.291575
00:00:00.142	1.306227	1.243223	1.287179
00:00:00.142	1.315751	1.266667	1.294505
00:00:00.142	1.312088	1.292308	1.306960
00:00:00.143	1.298168	1.285714	1.309158
00:00:00.143	1.328205	1.289377	1.315018
00:00:00.143	1.336264	1.287179	1.312088
00:00:00.144	1.312821	1.298168	1.323077
00:00:00.144	1.301099	1.299634	1.316484
00:00:00.145	1.302564	1.288645	1.296703
00:00:00.145	1.337729	1.304029	1.306227
00:00:00.145	1.336996	1.314286	1.300366
00:00:00.146	1.331136	1.338462	1.288645
00:00:00.146	1.323810	1.348718	1.298901
00:00:00.146	1.290842	1.328938	1.300366
00:00:00.149	1.252747	1.350183	1.295238
00:00:00.149	1.239560	1.333333	1.290842
00:00:00.149	1.257143	1.319414	1.290842
00:00:00.149	1.286447	1.319414	1.305495
00:00:00.149	1.322344	1.296703	1.312821
00:00:00.149	1.339927	1.297436	1.306960
00:00:00.149	1.332601	1.276923	1.305495
00:00:00.149	1.336264	1.290842	1.306960
00:00:00.150	1.333333	1.290110	1.318681
00:00:00.150	1.317216	1.280586	1.301099
00:00:00.150	1.320879	1.306227	1.309158
00:00:00.153	1.304029	1.306227	1.304029
00:00:00.184	1.305495	1.311355	1.306227
00:00:00.184	1.298901	1.311355	1.293773
00:00:00.185	1.309890	1.284982	1.304762
00:00:00.185	1.298901	1.276190	1.302564
00:00:00.185	1.304762	1.289377	1.302564
00:00:00.185	1.289377	1.261538	1.279853
00:00:00.185	1.298168	1.273260	1.284982
00:00:00.185	1.315751	1.294505	1.293040
00:00:00.190	1.298901	1.294505	1.295971
00:00:00.190	1.285714	1.333333	1.304762
00:00:00.190	1.304029	1.357509	1.317216
00:00:00.190	1.332601	1.361172	1.304029
00:00:00.190	1.366300	1.347253	1.316484
00:00:00.190	1.367766	1.339194	1.309158
00:00:00.190	1.323810	1.297436	1.294505
00:00:00.190	1.292308	1.268864	1.303297
00:00:00.190	1.264469	1.250549	1.309158
00:00:00.190	1.254945	1.238828	1.305495
00:00:00.190	1.275458	1.251282	1.290842
00:00:00.190	1.320879	1.298168	1.295971
00:00:00.190	1.354579	1.329670	1.300366
00:00:00.190	1.348718	1.345055	1.306960
00:00:00.191	1.332601	1.333333	1.294505
00:00:00.191	1.306227	1.332601	1.297436
00:00:00.191	1.276923	1.331868	1.295971
00:00:00.192	1.281319	1.340659	1.306227
00:00:00.192	1.293773	1.317949	1.309890
00:00:00.192	1.317949	1.291575	1.306227
00:00:00.193	1.317216	1.308425	1.315751
00:00:00.193	1.318681	1.309158	1.321612
00:00:00.194	1.298168	1.281319	1.303297
00:00:00.194	1.314286	1.310623	1.308425
00:00:00.194	1.315751	1.345055	1.300366
00:00:00.195	1.314286	1.345055	1.304762
00:00:00.195	1.334066	1.312088	1.310623
00:00:00.195	1.321612	1.278388	1.296703
00:00:00.196	1.292308	1.222711	1.298901
00:00:00.196	1.279121	1.208791	1.293773
00:00:00.196	1.291575	1.294505	1.295238
00:00:00.197	1.308425	1.320147	1.289377
00:00:00.197	1.329670	1.320879	1.291575
00:00:00.197	1.336996	1.311355	1.298168
00:00:00.198	1.323077	1.271795	1.297436
00:00:00.198	1.314286	1.279853	1.312821
00:00:00.199	1.305495	1.300366	1.314286
00:00:00.200	1.291575	1.312088	1.309158
00:00:00.200	1.295238	1.317949	1.318681
00:00:00.200	1.302564	1.321612	1.319414
00:00:00.200	1.297436	1.320147	1.312821
00:00:00.200	1.284249	1.313553	1.314286
00:00:00.233	1.295971	1.304762	1.299634
00:00:00.233	1.311355	1.312821	1.283516
00:00:00.233	1.312821	1.317949	1.293773
00:00:00.234	1.331868	1.336996	1.306227
00:00:00.234	1.309890	1.316484	1.297436
00:00:00.234	1.301099	1.277656	1.298901
00:00:00.235	1.294505	1.268864	1.291575
00:00:00.235	1.303297	1.308425	1.307692
00:00:00.235	1.326740	1.315018	1.304029
00:00:00.236	1.317949	1.315751	1.303297
00:00:00.236	1.306960	1.319414	1.306227
00:00:00.236	1.304762	1.317216	1.295238
00:00:00.237	1.295238	1.339194	1.312821
00:00:00.237	1.290842	1.356044	1.302564
00:00:00.238	1.298168	1.372894	1.302564
00:00:00.238	1.317949	1.368498	1.310623
00:00:00.238	1.315751	1.295971	1.310623
00:00:00.239	1.320147	1.236630	1.315751
00:00:00.239	1.318681	1.184615	1.297436
00:00:00.239	1.322344	1.208059	1.309890
00:00:00.240	1.322344	1.232967	1.299634
00:00:00.240	1.311355	1.242491	1.294505
00:00:00.240	1.319414	1.294505	1.288645
00:00:00.241	1.334066	1.355311	1.287912
00:00:00.241	1.309890	1.367766	1.299634
00:00:00.241	1.246886	1.332601	1.302564
00:00:00.242	1.232234	1.287179	1.297436
00:00:00.242	1.274725	1.289377	1.311355
00:00:00.245	1.320147	1.294505	1.304029
00:00:00.245	1.356044	1.306227	1.306227
00:00:00.245	1.395604	1.328938	1.309890
00:00:00.245	1.370696	1.336264	1.315018
00:00:00.245	1.300366	1.315018	1.320147
00:00:00.245	1.254945	1.311355	1.311355
00:00:00.245	1.232967	1.304029	1.298901
00:00:00.245	1.319414	1.317216	1.307692
00:00:00.245	1.348718	1.322344	1.304762
00:00:00.248	1.362637	1.298168	1.300366
00:00:00.248	1.331136	1.273993	1.299634
00:00:00.248	1.304762	1.305495	1.304029
00:00:00.248	1.279121	1.342125	1.293773
00:00:00.248	1.287912	1.358974	1.300366
00:00:00.248	1.300366	1.330403	1.300366
00:00:00.248	1.310623	1.279853	1.305495
00:00:00.248	1.294505	1.288645	1.307692
00:00:00.253	1.249817	1.293040	1.306227
00:00:00.253	1.268864	1.301832	1.303297
00:00:00.253	1.316484	1.282784	1.306960
00:00:00.253	1.328205	1.270330	1.315018
00:00:00.253	1.312088	1.276923	1.309158
00:00:00.286	1.301832	1.271795	1.300366
00:00:00.286	1.306960	1.309158	1.300366
00:00:00.286	1.341392	1.322344	1.297436
00:00:00.286	1.343590	1.299634	1.293040
00:00:00.286	1.323077	1.281319	1.283516
00:00:00.286	1.319414	1.283516	1.287179
00:00:00.286	1.318681	1.306960	1.298168
00:00:00.286	1.315018	1.325275	1.295238
00:00:00.286	1.315751	1.349451	1.296703
00:00:00.286	1.309890	1.361905	1.300366
00:00:00.286	1.299634	1.377289	1.312821
00:00:00.286	1.295971	1.350183	1.310623
00:00:00.287	1.295238	1.315751	1.310623
00:00:00.287	1.293040	1.285714	1.302564
00:00:00.287	1.309890	1.346520	1.312088
00:00:00.288	1.314286	1.345055	1.308425
00:00:00.288	1.316484	1.320147	1.314286
00:00:00.288	1.320147	1.235897	1.306960
00:00:00.289	1.309158	1.163370	1.284982
00:00:00.289	1.301099	1.191209	1.298901
00:00:00.289	1.304762	1.246154	1.292308
00:00:00.290	1.306960	1.260073	1.298168
00:00:00.290	1.327473	1.312088	1.302564
00:00:00.290	1.321612	1.350916	1.298168
00:00:00.291	1.322344	1.357509	1.306960
00:00:00.291	1.316484	1.309890	1.298168
00:00:00.292	1.300366	1.288645	1.290842
00:00:00.292	1.304762	1.315018	1.305495
00:00:00.292	1.299634	1.300366	1.294505
00:00:00.293	1.293773	1.280586	1.309158
00:00:00.293	1.293773	1.285714	1.306227
00:00:00.293	1.294505	1.304762	1.311355
00:00:00.294	1.306227	1.320147	1.312821
00:00:00.294	1.304762	1.324542	1.312821
00:00:00.294	1.315018	1.323077	1.311355
00:00:00.295	1.320879	1.320147	1.309890
00:00:00.295	1.309890	1.313553	1.296703
00:00:00.296	1.301832	1.320147	1.306960
00:00:00.296	1.300366	1.364835	1.287912
00:00:00.296	1.328938	1.406593	1.295238
00:00:00.297	1.317216	1.389744	1.300366
00:00:00.297	1.309158	1.325275	1.300366
00:00:00.297	1.309158	1.259341	1.299634
00:00:00.298	1.321612	1.241026	1.308425
00:00:00.298	1.322344	1.228571	1.305495
00:00:00.298	1.326740	1.202198	1.306960
00:00:00.299	1.331136	1.210989	1.315018
00:00:00.299	1.321612	1.276190	1.315018
00:00:00.299	1.292308	1.334799	1.312821
00:00:00.300	1.272527	1.355311	1.298901
00:00:00.332	1.235897	1.341392	1.309158
00:00:00.332	1.272527	1.331136	1.303297
00:00:00.333	1.311355	1.305495	1.298168
00:00:00.333	1.321612	1.298168	1.299634
00:00:00.333	1.359707	1.316484	1.298901
00:00:00.334	1.366300	1.339927	1.298901
00:00:00.334	1.328938	1.337729	1.293773
00:00:00.334	1.282784	1.332601	1.290842
00:00:00.335	1.253480	1.333333	1.306227
00:00:00.336	1.275458	1.329670	1.309158
00:00:00.336	1.299634	1.300366	1.305495
00:00:00.336	1.326007	1.295238	1.314286
00:00:00.336	1.353114	1.284982	1.312088
00:00:00.337	1.334799	1.262271	1.293773
00:00:00.337	1.332601	1.275458	1.318681
00:00:00.337	1.315751	1.273993	1.314286
00:00:00.338	1.314286	1.260073	1.315751
00:00:00.338	1.300366	1.272527	1.310623
00:00:00.338	1.279853	1.282784	1.296703
00:00:00.339	1.265934	1.332601	1.310623
00:00:00.340	1.245421	1.380220	1.306227
00:00:00.341	1.258608	1.375092	1.303297
00:00:00.341	1.290842	1.316484	1.290842
00:00:00.341	1.364103	1.291575	1.285714
00:00:00.341	1.386813	1.293773	1.293040
00:00:00.344	1.377289	1.312088	1.300366
00:00:00.344	1.322344	1.312821	1.297436
00:00:00.344	1.308425	1.310623	1.284249
00:00:00.344	1.285714	1.289377	1.283516
00:00:00.344	1.303297	1.278388	1.293040
00:00:00.344	1.317949	1.270330	1.308425
00:00:00.344	1.314286	1.250549	1.308425
00:00:00.344	1.329670	1.253480	1.309890
00:00:00.345	1.318681	1.267399	1.298168
00:00:00.345	1.285714	1.298901	1.299634
00:00:00.345	1.290842	1.327473	1.316484
00:00:00.345	1.308425	1.322344	1.312088
00:00:00.345	1.312821	1.312821	1.313553
00:00:00.350	1.300366	1.337729	1.303297
00:00:00.350	1.282784	1.337729	1.288645
00:00:00.350	1.307692	1.329670	1.297436
00:00:00.350	1.315018	1.328205	1.295238
00:00:00.350	1.313553	1.325275	1.319414
00:00:00.350	1.314286	1.320879	1.313553
00:00:00.350	1.308425	1.298168	1.295238
00:00:00.350	1.288645	1.302564	1.303297
00:00:00.350	1.297436	1.309158	1.310623
00:00:00.350	1.298168	1.293773	1.297436
00:00:00.350	1.310623	1.318681	1.316484
00:00:00.350	1.308425	1.306227	1.310623
00:00:00.382	1.321612	1.301099	1.309890
00:00:00.382	1.337729	1.321612	1.308425
00:00:00.382	1.336996	1.347985	1.304762
00:00:00.383	1.307692	1.328205	1.298168
00:00:00.383	1.304029	1.297436	1.295971
00:00:00.384	1.300366	1.262271	1.290110
00:00:00.384	1.305495	1.273993	1.297436
00:00:00.384	1.293040	1.271062	1.282784
00:00:00.385	1.284982	1.286447	1.289377
00:00:00.385	1.310623	1.326007	1.293040
00:00:00.385	1.342125	1.308425	1.306227
00:00:00.386	1.319414	1.312088	1.307692
00:00:00.386	1.309158	1.339194	1.306960
00:00:00.386	1.317216	1.367033	1.327473
00:00:00.387	1.294505	1.337729	1.314286
00:00:00.387	1.283516	1.288645	1.316484
00:00:00.388	1.312088	1.249084	1.316484
00:00:00.388	1.315751	1.230769	1.300366
00:00:00.388	1.335531	1.239560	1.306960
00:00:00.389	1.317949	1.255678	1.298168
00:00:00.389	1.274725	1.300366	1.296703
00:00:00.389	1.265201	1.339194	1.290110
00:00:00.390	1.259341	1.283516	1.284249
00:00:00.390	1.315018	1.272527	1.294505
00:00:00.390	1.334066	1.298168	1.297436
00:00:00.391	1.329670	1.312821	1.306227
00:00:00.391	1.315018	1.313553	1.308425
00:00:00.391	1.297436	1.273260	1.298168
00:00:00.392	1.307692	1.268864	1.298168
00:00:00.392	1.302564	1.312088	1.325275
00:00:00.392	1.306227	1.346520	1.314286
00:00:00.393	1.332601	1.336264	1.305495
00:00:00.393	1.323810	1.326740	1.300366
00:00:00.394	1.326007	1.334066	1.312821
00:00:00.394	1.315018	1.312821	1.294505
00:00:00.394	1.316484	1.309890	1.309158
00:00:00.395	1.306227	1.318681	1.308425
00:00:00.395	1.300366	1.323077	1.303297
00:00:00.395	1.303297	1.324542	1.309158
00:00:00.396	1.292308	1.298901	1.294505
00:00:00.396	1.300366	1.306960	1.288645
00:00:00.396	1.310623	1.314286	1.282784
00:00:00.397	1.300366	1.356777	1.287179
00:00:00.397	1.290842	1.339927	1.306960
00:00:00.397	1.302564	1.290842	1.304762
00:00:00.398	1.306227	1.293773	1.310623
00:00:00.398	1.315751	1.288645	1.312088
00:00:00.399	1.330403	1.278388	1.309158
00:00:00.399	1.338462	1.269597	1.324542
00:00:00.399	1.337729	1.264469	1.319414
00:00:00.431	1.330403	1.270330	1.311355
00:00:00.432	1.296703	1.268132	1.293773
00:00:00.432	1.295971	1.301832	1.300366
00:00:00.433	1.298901	1.296703	1.295971
00:00:00.433	1.276190	1.305495	1.291575
00:00:00.433	1.272527	1.320879	1.291575
00:00:00.434	1.282784	1.302564	1.286447
00:00:00.435	1.301832	1.291575	1.288645
00:00:00.435	1.322344	1.320879	1.309890
00:00:00.435	1.337729	1.337729	1.312821
00:00:00.435	1.341392	1.333333	1.298168
00:00:00.435	1.328938	1.319414	1.311355
00:00:00.438	1.328205	1.309890	1.293040
00:00:00.438	1.281319	1.298901	1.290842
00:00:00.438	1.291575	1.306227	1.315751
00:00:00.438	1.311355	1.316484	1.326740
00:00:00.438	1.297436	1.301099	1.309890
00:00:00.438	1.305495	1.309158	1.315751
00:00:00.438	1.322344	1.305495	1.284249
00:00:00.438	1.320879	1.314286	1.273260
00:00:00.439	1.311355	1.313553	1.281319
00:00:00.439	1.305495	1.312088	1.302564
00:00:00.440	1.303297	1.312821	1.298168
00:00:00.440	1.294505	1.315018	1.309890
00:00:00.440	1.296703	1.337729	1.308425
00:00:00.440	1.303297	1.331868	1.305495
00:00:00.441	1.308425	1.312821	1.308425
00:00:00.441	1.306227	1.278388	1.298901
00:00:00.441	1.317949	1.251282	1.297436
00:00:00.442	1.347253	1.243223	1.303297
00:00:00.442	1.361905	1.242491	1.312821
00:00:00.443	1.345055	1.241026	1.326740
00:00:00.443	1.327473	1.267399	1.333333
00:00:00.443	1.311355	1.300366	1.317216
00:00:00.444	1.291575	1.309890	1.292308
00:00:00.444	1.261538	1.304762	1.299634
00:00:00.444	1.249817	1.317949	1.304029
00:00:00.445	1.243956	1.325275	1.287912
00:00:00.445	1.262271	1.323810	1.288645
00:00:00.445	1.306227	1.324542	1.288645
00:00:00.446	1.299634	1.326740	1.295971
00:00:00.446	1.308425	1.333333	1.304762
00:00:00.446	1.304029	1.307692	1.290110
00:00:00.447	1.307692	1.300366	1.295971
00:00:00.447	1.320879	1.307692	1.308425
00:00:00.448	1.328205	1.314286	1.313553
00:00:00.448	1.320879	1.306960	1.313553
00:00:00.448	1.328205	1.313553	1.314286
00:00:00.449	1.317216	1.302564	1.315751
00:00:00.449	1.287179	1.323077	1.341392
00:00:00.481	1.294505	1.302564	1.326740
00:00:00.482	1.340659	1.282051	1.323810
00:00:00.482	1.369231	1.287912	1.321612
00:00:00.482	1.346520	1.291575	1.297436
00:00:00.483	1.342125	1.312821	1.287179
00:00:00.483	1.304762	1.315751	1.265934
00:00:00.483	1.259341	1.300366	1.260073
00:00:00.484	1.260073	1.312821	1.273993
00:00:00.484	1.282784	1.317216	1.251282
00:00:00.484	1.308425	1.304762	1.265934
00:00:00.485	1.321612	1.323810	1.294505
00:00:00.485	1.311355	1.308425	1.298901
00:00:00.485	1.331136	1.305495	1.359707
00:00:00.486	1.329670	1.282784	1.326740
00:00:00.486	1.338462	1.295971	1.329670
00:00:00.487	1.357509	1.317216	1.400000
00:00:00.487	1.321612	1.296703	1.373626
00:00:00.487	1.293773	1.293040	1.309890
00:00:00.488	1.257875	1.276190	1.217582
00:00:00.488	1.283516	1.292308	1.210256
00:00:00.488	1.300366	1.303297	1.257143
00:00:00.489	1.290842	1.290110	1.243223
00:00:00.489	1.304029	1.321612	1.290110
00:00:00.489	1.278388	1.296703	1.271062
00:00:00.490	1.313553	1.306960	1.340659
00:00:00.490	1.319414	1.313553	1.368498
00:00:00.490	1.312088	1.309158	1.307692
00:00:00.491	1.312821	1.322344	1.294505
00:00:00.491	1.313553	1.312088	1.284249
00:00:00.492	1.322344	1.312088	1.283516
00:00:00.492	1.330403	1.307692	1.292308
00:00:00.492	1.333333	1.291575	1.276923
00:00:00.493	1.341392	1.300366	1.304762
00:00:00.493	1.293040	1.296703	1.312821
00:00:00.493	1.282784	1.298901	1.334799
00:00:00.494	1.323077	1.297436	1.364103
00:00:00.494	1.279853	1.292308	1.339194
00:00:00.494	1.268864	1.312821	1.308425
00:00:00.495	1.271795	1.309890	1.257875
00:00:00.495	1.297436	1.312088	1.299634
00:00:00.495	1.300366	1.304029	1.311355
00:00:00.496	1.291575	1.312088	1.335531
00:00:00.496	1.293040	1.324542	1.399267
00:00:00.497	1.279853	1.330403	1.353846
00:00:00.497	1.323810	1.318681	1.304029
00:00:00.497	1.343590	1.298168	1.271795
00:00:00.498	1.307692	1.307692	1.218315
00:00:00.498	1.309890	1.303297	1.280586
00:00:00.498	1.309890	1.287912	1.300366
00:00:00.500	1.381685	1.290842	1.294505
00:00:00.531	1.375092	1.298168	1.342857
00:00:00.531	1.335531	1.297436	1.340659
00:00:00.532	1.369231	1.307692	1.329670
00:00:00.532	1.358974	1.306227	1.273260
00:00:00.532	1.315751	1.304029	1.257875
00:00:00.533	1.285714	1.303297	1.252747
00:00:00.533	1.269597	1.295971	1.255678
00:00:00.533	1.253480	1.312821	1.271795
00:00:00.535	1.307692	1.312821	1.295238
00:00:00.535	1.300366	1.320147	1.308425
00:00:00.535	1.269597	1.314286	1.310623
00:00:00.538	1.296703	1.308425	1.318681
00:00:00.538	1.312088	1.312088	1.330403
00:00:00.538	1.307692	1.301832	1.320147
00:00:00.538	1.309158	1.304029	1.323810
00:00:00.538	1.309158	1.304029	1.323810
00:00:00.538	1.296703	1.296703	1.317949
00:00:00.538	1.305495	1.306227	1.319414
00:00:00.538	1.340659	1.305495	1.320879
00:00:00.538	1.340659	1.296703	1.312821
00:00:00.538	1.323810	1.301832	1.305495
00:00:00.538	1.312088	1.310623	1.295971
00:00:00.543	1.296703	1.312088	1.300366
00:00:00.543	1.291575	1.308425	1.297436
00:00:00.543	1.295238	1.309158	1.295971
00:00:00.543	1.282784	1.308425	1.293040
00:00:00.543	1.305495	1.309890	1.303297
00:00:00.543	1.292308	1.308425	1.309890
00:00:00.543	1.295238	1.312821	1.316484
00:00:00.543	1.328938	1.308425	1.315751
00:00:00.543	1.360440	1.309158	1.309158
00:00:00.543	1.335531	1.298901	1.297436
00:00:00.543	1.305495	1.285714	1.291575
00:00:00.543	1.316484	1.307692	1.312821
00:00:00.543	1.311355	1.301832	1.304029
00:00:00.543	1.321612	1.300366	1.306227
00:00:00.545	1.330403	1.290842	1.300366
00:00:00.545	1.309890	1.298168	1.299634
00:00:00.545	1.291575	1.310623	1.297436
00:00:00.545	1.268132	1.310623	1.292308
00:00:00.545	1.294505	1.304029	1.282051
00:00:00.546	1.288645	1.323810	1.291575
00:00:00.546	1.282051	1.304029	1.295238
00:00:00.546	1.316484	1.312088	1.304762
00:00:00.547	1.320879	1.304762	1.300366
00:00:00.547	1.310623	1.302564	1.306960
00:00:00.547	1.321612	1.298168	1.312088
00:00:00.548	1.325275	1.292308	1.306227
00:00:00.548	1.326740	1.298901	1.316484
00:00:00.548	1.322344	1.302564	1.316484
00:00:00.581	1.301832	1.300366	1.309158
00:00:00.581	1.287912	1.298901	1.310623
00:00:00.581	1.304029	1.298168	1.308425
00:00:00.582	1.293040	1.293040	1.296703
00:00:00.582	1.296703	1.293773	1.282051
00:00:00.582	1.304762	1.298901	1.278388
00:00:00.583	1.302564	1.312088	1.290110
00:00:00.583	1.301832	1.320147	1.302564
00:00:00.583	1.306227	1.323810	1.332601
00:00:00.584	1.305495	1.315751	1.306227
00:00:00.584	1.297436	1.301832	1.287912
00:00:00.585	1.298901	1.307692	1.300366
00:00:00.585	1.315751	1.312821	1.315018
00:00:00.585	1.318681	1.310623	1.317216
00:00:00.586	1.354579	1.305495	1.312821
00:00:00.586	1.326740	1.285714	1.306227
00:00:00.586	1.313553	1.293040	1.315018
00:00:00.587	1.315018	1.298168	1.315018
00:00:00.587	1.293773	1.290842	1.289377
00:00:00.587	1.282051	1.290110	1.293040
00:00:00.588	1.296703	1.289377	1.279853
00:00:00.588	1.309158	1.300366	1.284249
00:00:00.589	1.261538	1.301099	1.304029
00:00:00.589	1.276923	1.306960	1.325275
00:00:00.589	1.292308	1.305495	1.304762
00:00:00.590	1.319414	1.302564	1.294505
00:00:00.590	1.384615	1.317216	1.315751
00:00:00.590	1.372894	1.307692	1.287912
00:00:00.591	1.293040	1.313553	1.296703
00:00:00.591	1.288645	1.315751	1.303297
00:00:00.591	1.293773	1.295238	1.281319
00:00:00.592	1.313553	1.302564	1.295238
00:00:00.592	1.312088	1.298168	1.297436
00:00:00.592	1.317216	1.298168	1.315018
00:00:00.593	1.301832	1.289377	1.309158
00:00:00.593	1.309158	1.305495	1.320879
00:00:00.594	1.309158	1.304029	1.299634
00:00:00.594	1.298168	1.299634	1.304029
00:00:00.594	1.310623	1.307692	1.306960
00:00:00.595	1.303297	1.297436	1.279121
00:00:00.595	1.312088	1.312088	1.297436
00:00:00.595	1.316484	1.313553	1.307692
00:00:00.597	1.307692	1.313553	1.317949
00:00:00.597	1.312088	1.317216	1.328205
00:00:00.598	1.307692	1.312088	1.303297
00:00:00.598	1.295238	1.306227	1.284249
00:00:00.598	1.298168	1.306960	1.265934
00:00:00.598	1.292308	1.296703	1.279853
00:00:00.598	1.309890	1.306960	1.294505
00:00:00.598	1.315751	1.307692	1.311355
00:00:00.631	1.312821	1.300366	1.353846
00:00:00.631	1.327473	1.305495	1.353114
00:00:00.631	1.325275	1.296703	1.344322
00:00:00.631	1.332601	1.295238	1.307692
00:00:00.633	1.316484	1.296703	1.266667
00:00:00.633	1.301099	1.303297	1.279121
00:00:00.633	1.298168	1.299634	1.290110
00:00:00.633	1.296703	1.312088	1.319414
00:00:00.633	1.301832	1.313553	1.293773
00:00:00.638	1.298168	1.306227	1.258608
00:00:00.638	1.300366	1.307692	1.276923
00:00:00.638	1.291575	1.305495	1.295971
00:00:00.638	1.312088	1.306960	1.305495
00:00:00.638	1.307692	1.312088	1.291575
00:00:00.638	1.291575	1.310623	1.302564
00:00:00.638	1.263736	1.314286	1.323810
00:00:00.638	1.284249	1.301832	1.317216
00:00:00.638	1.294505	1.303297	1.353846
00:00:00.638	1.294505	1.298168	1.337729
00:00:00.638	1.324542	1.301832	1.299634
00:00:00.638	1.336264	1.295238	1.273260
00:00:00.638	1.388278	1.289377	1.259341
00:00:00.638	1.398535	1.300366	1.282784
00:00:00.639	1.314286	1.299634	1.287912
00:00:00.639	1.284249	1.295971	1.293773
00:00:00.639	1.278388	1.301099	1.298168
00:00:00.640	1.294505	1.306960	1.300366
00:00:00.640	1.302564	1.309890	1.307692
00:00:00.640	1.313553	1.310623	1.306960
00:00:00.641	1.309158	1.305495	1.307692
00:00:00.641	1.310623	1.302564	1.304029
00:00:00.641	1.312088	1.306227	1.309158
00:00:00.642	1.298168	1.293773	1.306227
00:00:00.642	1.304029	1.305495	1.312821
00:00:00.643	1.295238	1.303297	1.305495
00:00:00.643	1.306960	1.301832	1.312088
00:00:00.643	1.310623	1.306227	1.309158
00:00:00.644	1.308425	1.291575	1.296703
00:00:00.644	1.321612	1.297436	1.300366
00:00:00.644	1.305495	1.306227	1.305495
00:00:00.645	1.289377	1.300366	1.297436
00:00:00.645	1.307692	1.321612	1.295238
00:00:00.645	1.304029	1.306227	1.279853
00:00:00.646	1.309890	1.309890	1.295971
00:00:00.646	1.312088	1.312821	1.298901
00:00:00.646	1.302564	1.301099	1.292308
00:00:00.647	1.316484	1.318681	1.306960
00:00:00.647	1.317949	1.319414	1.315018
00:00:00.648	1.316484	1.308425	1.314286
00:00:00.648	1.313553	1.299634	1.317949
00:00:00.681	1.306227	1.283516	1.304762
00:00:00.681	1.306227	1.282784	1.311355
00:00:00.681	1.317216	1.292308	1.314286
00:00:00.681	1.312088	1.296703	1.307692
00:00:00.682	1.306960	1.287912	1.298901
00:00:00.682	1.309158	1.291575	1.295971
00:00:00.682	1.302564	1.299634	1.305495
00:00:00.683	1.306227	1.306960	1.290110
00:00:00.683	1.305495	1.312088	1.268864
00:00:00.683	1.300366	1.320879	1.283516
00:00:00.684	1.312088	1.322344	1.300366
00:00:00.684	1.310623	1.319414	1.323810
00:00:00.684	1.313553	1.324542	1.335531
00:00:00.685	1.307692	1.326007	1.315018
00:00:00.685	1.319414	1.317949	1.309890
00:00:00.685	1.315018	1.306227	1.312821
00:00:00.686	1.317216	1.304762	1.320879
00:00:00.686	1.315018	1.301832	1.319414
00:00:00.687	1.312088	1.302564	1.309890
00:00:00.687	1.309158	1.306227	1.309158
00:00:00.687	1.317949	1.317216	1.303297
00:00:00.688	1.293040	1.310623	1.294505
00:00:00.688	1.294505	1.304762	1.300366
00:00:00.688	1.304029	1.304029	1.293040
00:00:00.689	1.307692	1.309158	1.295238
00:00:00.689	1.301832	1.297436	1.283516
00:00:00.689	1.307692	1.301099	1.287912
00:00:00.690	1.307692	1.295971	1.297436
00:00:00.690	1.312088	1.289377	1.297436
00:00:00.690	1.296703	1.269597	1.293773
00:00:00.691	1.311355	1.282051	1.309158
00:00:00.691	1.311355	1.296703	1.317216
00:00:00.695	1.317949	1.295971	1.316484
00:00:00.695	1.311355	1.293040	1.309158
00:00:00.695	1.313553	1.298168	1.309890
00:00:00.695	1.317949	1.306227	1.309158
00:00:00.695	1.307692	1.318681	1.306960
00:00:00.695	1.309890	1.332601	1.320147
00:00:00.695	1.309158	1.336264	1.306960
00:00:00.695	1.300366	1.335531	1.301832
00:00:00.695	1.307692	1.329670	1.292308
00:00:00.696	1.310623	1.319414	1.298901
00:00:00.696	1.309890	1.309158	1.299634
00:00:00.696	1.306960	1.292308	1.301832
00:00:00.696	1.312821	1.291575	1.300366
00:00:00.696	1.317216	1.284982	1.298901
00:00:00.697	1.321612	1.283516	1.312821
00:00:00.697	1.313553	1.293040	1.309158
00:00:00.697	1.318681	1.301099	1.306227
00:00:00.698	1.315751	1.307692	1.306227
00:00:00.733	1.316484	1.308425	1.310623
00:00:00.733	1.315751	1.298901	1.307692
00:00:00.733	1.317216	1.306227	1.315018
00:00:00.733	1.309158	1.306227	1.305495
00:00:00.733	1.306960	1.314286	1.299634
00:00:00.733	1.306960	1.315751	1.298901
00:00:00.733	1.301832	1.312821	1.286447
00:00:00.733	1.309158	1.318681	1.293040
00:00:00.733	1.311355	1.331136	1.296703
00:00:00.733	1.300366	1.321612	1.290110
00:00:00.733	1.309890	1.326740	1.304029
00:00:00.734	1.301832	1.312821	1.298901
00:00:00.734	1.306227	1.306960	1.307692
00:00:00.734	1.309158	1.285714	1.296703
00:00:00.735	1.313553	1.296703	1.307692
00:00:00.735	1.308425	1.287912	1.309158
00:00:00.736	1.306227	1.284982	1.305495
00:00:00.736	1.309158	1.300366	1.309890
00:00:00.736	1.306960	1.300366	1.308425
00:00:00.737	1.320879	1.306227	1.309158
00:00:00.737	1.312088	1.303297	1.305495
00:00:00.737	1.325275	1.304762	1.306227
00:00:00.738	1.316484	1.298901	1.294505
00:00:00.738	1.309158	1.306960	1.297436
00:00:00.738	1.302564	1.295238	1.282784
00:00:00.739	1.288645	1.316484	1.302564
00:00:00.739	1.300366	1.309158	1.296703
00:00:00.739	1.314286	1.307692	1.300366
00:00:00.740	1.321612	1.301099	1.309158
00:00:00.740	1.309890	1.290110	1.305495
00:00:00.741	1.319414	1.300366	1.303297
00:00:00.741	1.316484	1.295238	1.305495
00:00:00.741	1.313553	1.285714	1.309890
00:00:00.742	1.295238	1.284249	1.304029
00:00:00.742	1.303297	1.298901	1.309158
00:00:00.742	1.312088	1.306960	1.317949
00:00:00.743	1.310623	1.327473	1.310623
00:00:00.743	1.300366	1.308425	1.307692
00:00:00.743	1.315018	1.300366	1.300366
00:00:00.744	1.312821	1.300366	1.287179
00:00:00.744	1.301832	1.312088	1.298168
00:00:00.744	1.294505	1.306227	1.295238
00:00:00.745	1.304762	1.323810	1.295238
00:00:00.745	1.309890	1.338462	1.303297
00:00:00.746	1.318681	1.339194	1.308425
00:00:00.746	1.303297	1.302564	1.302564
00:00:00.746	1.315018	1.299634	1.300366
00:00:00.747	1.303297	1.303297	1.301832
00:00:00.747	1.323077	1.315018	1.316484
00:00:00.747	1.322344	1.297436	1.315751
00:00:00.780	1.317949	1.297436	1.305495
00:00:00.780	1.315018	1.315751	1.310623
00:00:00.780	1.293773	1.285714	1.300366
00:00:00.781	1.309158	1.298901	1.310623
00:00:00.781	1.306227	1.291575	1.295238
00:00:00.781	1.304762	1.290110	1.298901
00:00:00.782	1.316484	1.283516	1.295971
00:00:00.782	1.302564	1.280586	1.301832
00:00:00.782	1.301832	1.306960	1.298168
00:00:00.783	1.290842	1.308425	1.280586
00:00:00.783	1.304029	1.317949	1.293773
00:00:00.783	1.303297	1.350183	1.300366
00:00:00.784	1.313553	1.384615	1.309890
00:00:00.784	1.319414	1.383150	1.312821
00:00:00.785	1.320147	1.339927	1.307692
00:00:00.785	1.322344	1.330403	1.309890
00:00:00.785	1.334066	1.309158	1.312821
00:00:00.786	1.323077	1.259341	1.310623
00:00:00.786	1.315018	1.227839	1.315751
00:00:00.786	1.298168	1.227839	1.297436
00:00:00.787	1.289377	1.230037	1.293773
00:00:00.787	1.301832	1.223443	1.309890
00:00:00.787	1.308425	1.248352	1.299634
00:00:00.790	1.307692	1.261538	1.294505
00:00:00.790	1.308425	1.297436	1.302564
00:00:00.790	1.301832	1.309890	1.287912
00:00:00.790	1.290842	1.300366	1.295238
00:00:00.790	1.312088	1.313553	1.298901
00:00:00.790	1.308425	1.296703	1.303297
00:00:00.790	1.314286	1.294505	1.306960
00:00:00.790	1.306227	1.295238	1.306227
00:00:00.791	1.297436	1.295971	1.311355
00:00:00.791	1.306227	1.303297	1.309890
00:00:00.791	1.312088	1.319414	1.312088
00:00:00.793	1.335531	1.329670	1.323810
00:00:00.793	1.326007	1.298168	1.304029
00:00:00.793	1.322344	1.318681	1.306960
00:00:00.793	1.315018	1.345788	1.311355
00:00:00.793	1.306227	1.361172	1.309890
00:00:00.798	1.310623	1.374359	1.300366
00:00:00.798	1.300366	1.348718	1.278388
00:00:00.798	1.306227	1.362637	1.285714
00:00:00.798	1.309158	1.357509	1.295971
00:00:00.798	1.303297	1.361172	1.297436
00:00:00.798	1.305495	1.328938	1.300366
00:00:00.798	1.308425	1.302564	1.300366
00:00:00.798	1.306227	1.284982	1.304029
00:00:00.798	1.316484	1.279121	1.312088
00:00:00.798	1.310623	1.268132	1.304029
00:00:00.798	1.311355	1.276923	1.304029
00:00:00.829	1.319414	1.285714	1.315018
00:00:00.830	1.309890	1.269597	1.320879
00:00:00.830	1.307692	1.285714	1.311355
00:00:00.830	1.309890	1.287912	1.314286
00:00:00.831	1.298168	1.293040	1.299634
00:00:00.831	1.316484	1.321612	1.303297
00:00:00.831	1.320879	1.318681	1.296703
00:00:00.832	1.317949	1.321612	1.300366
00:00:00.832	1.317216	1.315018	1.299634
00:00:00.833	1.298901	1.312821	1.290842
00:00:00.833	1.306227	1.339927	1.298168
00:00:00.833	1.295238	1.313553	1.297436
00:00:00.834	1.298168	1.276923	1.299634
00:00:00.834	1.300366	1.279121	1.297436
00:00:00.834	1.312088	1.298168	1.300366
00:00:00.835	1.320147	1.300366	1.311355
00:00:00.835	1.331136	1.291575	1.314286
00:00:00.835	1.331136	1.304029	1.317949
00:00:00.836	1.306960	1.317949	1.314286
00:00:00.836	1.300366	1.294505	1.296703
00:00:00.836	1.300366	1.283516	1.309158
00:00:00.838	1.307692	1.292308	1.308425
00:00:00.838	1.306227	1.290842	1.300366
00:00:00.838	1.303297	1.283516	1.304762
00:00:00.838	1.306227	1.288645	1.300366
00:00:00.838	1.307692	1.277656	1.290842
00:00:00.839	1.304762	1.297436	1.287912
00:00:00.839	1.310623	1.332601	1.298168
00:00:00.839	1.305495	1.315751	1.295238
00:00:00.840	1.305495	1.306960	1.309158
00:00:00.840	1.315018	1.323810	1.306960
00:00:00.840	1.320879	1.342857	1.306960
00:00:00.841	1.320879	1.341392	1.314286
00:00:00.841	1.317216	1.330403	1.316484
00:00:00.841	1.318681	1.315751	1.313553
00:00:00.842	1.323077	1.312821	1.311355
00:00:00.842	1.311355	1.304762	1.311355
00:00:00.843	1.315018	1.302564	1.310623
00:00:00.843	1.307692	1.280586	1.297436
00:00:00.843	1.300366	1.277656	1.291575
00:00:00.844	1.304029	1.294505	1.293773
00:00:00.844	1.286447	1.287912	1.287912
00:00:00.844	1.290842	1.293773	1.294505
00:00:00.845	1.295971	1.298168	1.279121
00:00:00.845	1.298168	1.305495	1.300366
00:00:00.845	1.311355	1.305495	1.294505
00:00:00.846	1.322344	1.318681	1.312821
00:00:00.846	1.322344	1.311355	1.309158
00:00:00.846	1.327473	1.287912	1.303297
00:00:00.847	1.338462	1.298901	1.316484
00:00:00.879	1.308425	1.312821	1.306960
00:00:00.879	1.309890	1.353846	1.313553
00:00:00.880	1.307692	1.331868	1.303297
00:00:00.880	1.310623	1.327473	1.314286
00:00:00.880	1.306960	1.306227	1.304762
00:00:00.881	1.295238	1.291575	1.293040
00:00:00.881	1.301099	1.295971	1.291575
00:00:00.882	1.295971	1.288645	1.286447
00:00:00.882	1.306960	1.302564	1.303297
00:00:00.882	1.304029	1.289377	1.292308
00:00:00.885	1.315018	1.285714	1.298901
00:00:00.885	1.298901	1.286447	1.297436
00:00:00.885	1.304029	1.312821	1.301832
00:00:00.885	1.309158	1.311355	1.310623
00:00:00.885	1.310623	1.298168	1.309890
00:00:00.885	1.321612	1.304762	1.312821
00:00:00.887	1.312821	1.316484	1.310623
00:00:00.887	1.306227	1.324542	1.310623
00:00:00.887	1.315018	1.318681	1.319414
00:00:00.887	1.298901	1.296703	1.300366
00:00:00.887	1.320147	1.302564	1.304029
00:00:00.887	1.316484	1.281319	1.291575
00:00:00.887	1.315751	1.282051	1.299634
00:00:00.887	1.306960	1.287179	1.282051
00:00:00.888	1.299634	1.280586	1.287179
00:00:00.888	1.300366	1.290842	1.296703
00:00:00.888	1.298168	1.291575	1.284249
00:00:00.889	1.289377	1.301099	1.295238
00:00:00.890	1.300366	1.316484	1.304762
00:00:00.890	1.306960	1.320147	1.311355
00:00:00.890	1.317949	1.312821	1.306227
00:00:00.890	1.323077	1.296703	1.300366
00:00:00.890	1.331868	1.300366	1.313553
00:00:00.891	1.317949	1.300366	1.306960
00:00:00.891	1.311355	1.306960	1.316484
00:00:00.892	1.312821	1.302564	1.314286
00:00:00.892	1.315751	1.316484	1.312821
00:00:00.892	1.298168	1.341392	1.299634
00:00:00.893	1.309158	1.352381	1.306960
00:00:00.893	1.297436	1.329670	1.293773
00:00:00.893	1.295238	1.319414	1.303297
00:00:00.894	1.291575	1.287179	1.286447
00:00:00.894	1.303297	1.284982	1.297436
00:00:00.894	1.306960	1.279853	1.296703
00:00:00.895	1.309158	1.278388	1.298901
00:00:00.895	1.307692	1.270330	1.297436
00:00:00.895	1.306227	1.276190	1.293040
00:00:00.896	1.313553	1.284982	1.297436
00:00:00.896	1.307692	1.298901	1.291575
00:00:00.897	1.312088	1.320879	1.310623
00:00:00.929	1.315018	1.317949	1.306227
00:00:00.929	1.312088	1.319414	1.319414
00:00:00.929	1.316484	1.320147	1.316484
00:00:00.930	1.312088	1.308425	1.314286
00:00:00.930	1.308425	1.305495	1.313553
00:00:00.931	1.301099	1.297436	1.290110
00:00:00.931	1.306960	1.311355	1.304762
00:00:00.931	1.312821	1.298901	1.304029
00:00:00.932	1.309890	1.301099	1.300366
00:00:00.932	1.288645	1.295971	1.295971
00:00:00.932	1.309158	1.305495	1.298901
00:00:00.933	1.311355	1.309890	1.295971
00:00:00.933	1.306960	1.315751	1.295238
00:00:00.933	1.312088	1.321612	1.306960
00:00:00.934	1.314286	1.316484	1.304762
00:00:00.934	1.317216	1.307692	1.314286
00:00:00.934	1.305495	1.289377	1.296703
00:00:00.935	1.309890	1.309158	1.316484
00:00:00.935	1.318681	1.317216	1.320879
00:00:00.936	1.316484	1.306227	1.311355
00:00:00.936	1.301099	1.293040	1.300366
00:00:00.936	1.312088	1.301832	1.300366
00:00:00.937	1.313553	1.323077	1.297436
00:00:00.937	1.315018	1.334799	1.303297
00:00:00.937	1.309158	1.323810	1.293773
00:00:00.938	1.294505	1.308425	1.290842
00:00:00.938	1.311355	1.320147	1.302564
00:00:00.938	1.302564	1.285714	1.287179
00:00:00.939	1.309890	1.295971	1.303297
00:00:00.939	1.309890	1.295971	1.306960
00:00:00.939	1.306227	1.293773	1.303297
00:00:00.940	1.316484	1.295238	1.302564
00:00:00.940	1.303297	1.278388	1.300366
00:00:00.941	1.307692	1.267399	1.309158
00:00:00.942	1.310623	1.279121	1.307692
00:00:00.942	1.318681	1.296703	1.308425
00:00:00.942	1.314286	1.298901	1.309890
00:00:00.942	1.304762	1.271795	1.293773
00:00:00.942	1.306227	1.286447	1.299634
00:00:00.943	1.311355	1.302564	1.301832
00:00:00.943	1.298168	1.309890	1.304762
00:00:00.943	1.299634	1.307692	1.297436
00:00:00.944	1.307692	1.308425	1.293040
00:00:00.944	1.311355	1.324542	1.298168
00:00:00.945	1.309890	1.330403	1.306960
00:00:00.945	1.309158	1.323077	1.300366
00:00:00.945	1.301832	1.334066	1.303297
00:00:00.946	1.312088	1.336996	1.295971
00:00:00.946	1.314286	1.326740	1.315751
00:00:00.946	1.303297	1.294505	1.309158
00:00:00.978	1.317949	1.303297	1.316484
00:00:00.979	1.317949	1.309158	1.312088
00:00:00.979	1.315018	1.312821	1.301832
00:00:00.981	1.308425	1.317216	1.311355
00:00:00.981	1.312821	1.317216	1.305495
00:00:00.981	1.305495	1.315751	1.300366
00:00:00.981	1.304762	1.302564	1.299634
00:00:00.982	1.297436	1.296703	1.295971
00:00:00.982	1.296703	1.294505	1.299634
00:00:00.982	1.300366	1.309890	1.298168
00:00:00.982	1.295971	1.303297	1.294505
00:00:00.982	1.307692	1.269597	1.296703
00:00:00.985	1.304762	1.261538	1.303297
00:00:00.985	1.307692	1.278388	1.306227
00:00:00.985	1.306227	1.306960	1.306227
00:00:00.985	1.323810	1.333333	1.304762
00:00:00.985	1.305495	1.318681	1.304029
00:00:00.985	1.317216	1.311355	1.306960
00:00:00.985	1.312821	1.273260	1.307692
00:00:00.985	1.314286	1.284249	1.309890
00:00:00.991	1.309158	1.297436	1.303297
00:00:00.991	1.306960	1.298901	1.295238
00:00:00.991	1.314286	1.309890	1.306227
00:00:00.991	1.303297	1.293040	1.302564
00:00:00.991	1.294505	1.282051	1.288645
00:00:00.991	1.303297	1.287179	1.292308
00:00:00.991	1.303297	1.272527	1.278388
00:00:00.991	1.312088	1.312088	1.300366
00:00:00.991	1.309158	1.321612	1.295238
00:00:00.991	1.315018	1.339194	1.314286
00:00:00.991	1.309158	1.331136	1.304029
00:00:00.991	1.317216	1.323810	1.309890
00:00:00.991	1.315751	1.314286	1.304762
00:00:00.991	1.317949	1.310623	1.308425
00:00:00.991	1.314286	1.299634	1.306960
00:00:00.991	1.316484	1.318681	1.312821
00:00:00.991	1.316484	1.334799	1.320879
00:00:00.992	1.303297	1.315751	1.311355
00:00:00.992	1.295238	1.285714	1.298901
00:00:00.992	1.302564	1.286447	1.300366
00:00:00.993	1.304762	1.307692	1.300366
00:00:00.994	1.304029	1.306960	1.295971
00:00:00.994	1.293040	1.323077	1.294505
00:00:00.994	1.306960	1.346520	1.295971
00:00:00.994	1.312088	1.353846	1.303297
