timestamp	ch1	ch2	ch3
00:00:00.000	1.297436	1.297436	1.307692
00:00:00.001	1.280586	1.273993	1.300366
00:00:00.001	1.268864	1.273260	1.296703
00:00:00.001	1.287179	1.302564	1.304762
00:00:00.002	1.298901	1.319414	1.288645
00:00:00.002	1.303297	1.348718	1.294505
00:00:00.003	1.306227	1.350183	1.300366
00:00:00.003	1.293040	1.362637	1.306227
00:00:00.003	1.280586	1.367033	1.299634
00:00:00.004	1.293040	1.355311	1.303297
00:00:00.004	1.321612	1.408059	1.308425
00:00:00.004	1.367033	1.430037	1.317949
00:00:00.005	1.375824	1.365568	1.316484
00:00:00.005	1.376557	1.271795	1.309890
00:00:00.005	1.354579	1.196337	1.314286
00:00:00.006	1.341392	1.171429	1.315751
00:00:00.006	1.294505	1.185348	1.300366
00:00:00.006	1.284249	1.147985	1.287912
00:00:00.007	1.271062	1.180952	1.288645
00:00:00.007	1.252015	1.254945	1.284982
00:00:00.008	1.247619	1.290842	1.289377
00:00:00.008	1.253480	1.298168	1.290842
00:00:00.008	1.273993	1.305495	1.290110
00:00:00.009	1.303297	1.323077	1.287912
00:00:00.009	1.334066	1.358974	1.293040
00:00:00.009	1.350916	1.359707	1.293040
00:00:00.010	1.343590	1.354579	1.307692
00:00:00.010	1.331868	1.358974	1.312821
00:00:00.010	1.333333	1.326740	1.303297
00:00:00.011	1.353846	1.316484	1.326007
00:00:00.011	1.333333	1.297436	1.317216
00:00:00.011	1.297436	1.281319	1.312821
00:00:00.012	1.306227	1.290842	1.309158
00:00:00.012	1.312088	1.306960	1.294505
00:00:00.013	1.309890	1.347985	1.308425
00:00:00.013	1.307692	1.352381	1.305495
00:00:00.013	1.302564	1.339194	1.306960
00:00:00.014	1.301832	1.327473	1.291575
00:00:00.014	1.304762	1.303297	1.285714
00:00:00.014	1.328938	1.306227	1.293773
00:00:00.015	1.317216	1.298901	1.296703
00:00:00.015	1.334799	1.323077	1.308425
00:00:00.015	1.299634	1.313553	1.300366
00:00:00.016	1.257875	1.309890	1.303297
00:00:00.016	1.267399	1.309890	1.323077
00:00:00.016	1.288645	1.304762	1.320879
00:00:00.018	1.277656	1.290110	1.309890
00:00:00.018	1.268132	1.298168	1.303297
00:00:00.018	1.299634	1.306960	1.300366
00:00:00.018	1.332601	1.309158	1.306960
00:00:00.050	1.340659	1.289377	1.304029
00:00:00.050	1.317949	1.276923	1.298901
00:00:00.051	1.310623	1.297436	1.300366
00:00:00.051	1.282784	1.291575	1.283516
00:00:00.052	1.282784	1.306227	1.297436
00:00:00.052	1.292308	1.312821	1.302564
00:00:00.053	1.314286	1.339194	1.312821
00:00:00.054	1.347985	1.400733	1.306960
00:00:00.054	1.353846	1.374359	1.296703
00:00:00.054	1.338462	1.353114	1.308425
00:00:00.054	1.320147	1.284982	1.305495
00:00:00.054	1.293040	1.219048	1.307692
00:00:00.054	1.313553	1.220513	1.311355
00:00:00.056	1.299634	1.192674	1.303297
00:00:00.056	1.312088	1.205861	1.309890
00:00:00.056	1.317949	1.249084	1.315018
00:00:00.057	1.301832	1.304029	1.306960
00:00:00.057	1.319414	1.331868	1.312088
00:00:00.057	1.318681	1.339194	1.300366
00:00:00.057	1.295971	1.322344	1.284249
00:00:00.057	1.292308	1.326740	1.284249
00:00:00.059	1.305495	1.326740	1.300366
00:00:00.059	1.312088	1.320879	1.304762
00:00:00.059	1.320147	1.320147	1.300366
00:00:00.059	1.356777	1.312821	1.306227
00:00:00.059	1.376557	1.304029	1.299634
00:00:00.059	1.350183	1.312821	1.302564
00:00:00.064	1.290842	1.330403	1.300366
00:00:00.064	1.237363	1.335531	1.317216
00:00:00.064	1.268132	1.323810	1.312088
00:00:00.064	1.298168	1.301099	1.298168
00:00:00.064	1.306227	1.296703	1.300366
00:00:00.064	1.293773	1.288645	1.304029
00:00:00.064	1.276190	1.273993	1.296703
00:00:00.064	1.303297	1.290842	1.308425
00:00:00.064	1.306227	1.309158	1.305495
00:00:00.064	1.304762	1.306227	1.298168
00:00:00.064	1.317949	1.312088	1.293773
00:00:00.064	1.313553	1.321612	1.300366
00:00:00.064	1.323077	1.344322	1.318681
00:00:00.064	1.318681	1.392674	1.309158
00:00:00.065	1.325275	1.402930	1.298901
00:00:00.065	1.306960	1.378022	1.298901
00:00:00.066	1.316484	1.383150	1.306227
00:00:00.066	1.304762	1.312088	1.293040
00:00:00.066	1.318681	1.191941	1.295971
00:00:00.067	1.323810	1.152381	1.305495
00:00:00.067	1.303297	1.109158	1.305495
00:00:00.067	1.309890	1.181685	1.303297
00:00:00.068	1.309158	1.276190	1.304762
00:00:00.100	1.319414	1.308425	1.306960
00:00:00.100	1.304762	1.315018	1.302564
00:00:00.101	1.305495	1.347253	1.292308
00:00:00.102	1.307692	1.347253	1.295971
00:00:00.102	1.313553	1.349451	1.306960
00:00:00.102	1.314286	1.345055	1.301099
00:00:00.102	1.317216	1.353846	1.289377
00:00:00.102	1.312088	1.368498	1.304762
00:00:00.103	1.297436	1.380220	1.296703
00:00:00.103	1.310623	1.404396	1.306227
00:00:00.103	1.312088	1.369231	1.304762
00:00:00.104	1.310623	1.317216	1.317949
00:00:00.104	1.300366	1.242491	1.317216
00:00:00.105	1.280586	1.189011	1.312821
00:00:00.105	1.298168	1.189744	1.304029
00:00:00.105	1.288645	1.153114	1.290110
00:00:00.106	1.291575	1.178755	1.298901
00:00:00.106	1.313553	1.257875	1.300366
00:00:00.106	1.317216	1.347253	1.295971
00:00:00.107	1.333333	1.424908	1.298901
00:00:00.107	1.320147	1.408791	1.304762
00:00:00.107	1.308425	1.396337	1.302564
00:00:00.108	1.300366	1.339927	1.291575
00:00:00.108	1.311355	1.291575	1.304029
00:00:00.108	1.305495	1.304029	1.298168
00:00:00.109	1.340659	1.295238	1.312088
00:00:00.109	1.327473	1.249084	1.298901
00:00:00.110	1.314286	1.238095	1.303297
00:00:00.110	1.306227	1.265201	1.314286
00:00:00.110	1.290110	1.273260	1.290842
00:00:00.111	1.295238	1.288645	1.306227
00:00:00.111	1.274725	1.270330	1.308425
00:00:00.111	1.270330	1.311355	1.303297
00:00:00.112	1.256410	1.331136	1.301832
00:00:00.112	1.262271	1.331868	1.315751
00:00:00.112	1.283516	1.333333	1.316484
00:00:00.113	1.293773	1.336264	1.306227
00:00:00.113	1.334066	1.337729	1.310623
00:00:00.113	1.372894	1.323077	1.297436
00:00:00.114	1.364103	1.348718	1.298168
00:00:00.114	1.317949	1.345788	1.302564
00:00:00.115	1.300366	1.320879	1.291575
00:00:00.115	1.326740	1.315751	1.304762
00:00:00.115	1.323077	1.301832	1.297436
00:00:00.116	1.324542	1.288645	1.308425
00:00:00.116	1.306960	1.285714	1.305495
00:00:00.116	1.294505	1.279853	1.300366
00:00:00.118	1.324542	1.293040	1.307692
00:00:00.118	1.320879	1.292308	1.302564
00:00:00.118	1.323077	1.301832	1.307692
00:00:00.153	1.288645	1.302564	1.290842
00:00:00.153	1.265201	1.298901	1.298901
00:00:00.153	1.265201	1.312821	1.307692
00:00:00.153	1.295971	1.305495	1.306960
00:00:00.153	1.326007	1.307692	1.312088
00:00:00.153	1.321612	1.317216	1.297436
00:00:00.153	1.315751	1.315751	1.291575
00:00:00.153	1.315751	1.311355	1.285714
00:00:00.153	1.331868	1.338462	1.295971
00:00:00.153	1.315018	1.317949	1.293773
00:00:00.155	1.290110	1.299634	1.306227
00:00:00.155	1.289377	1.276923	1.305495
00:00:00.155	1.306960	1.268864	1.314286
00:00:00.155	1.331136	1.276923	1.314286
00:00:00.155	1.339194	1.335531	1.306960
00:00:00.155	1.343590	1.358974	1.318681
00:00:00.155	1.312088	1.358242	1.314286
00:00:00.160	1.296703	1.351648	1.313553
00:00:00.160	1.297436	1.321612	1.306960
00:00:00.160	1.287179	1.279853	1.292308
00:00:00.160	1.305495	1.241026	1.299634
00:00:00.160	1.303297	1.189744	1.285714
00:00:00.160	1.298901	1.197802	1.285714
00:00:00.160	1.298901	1.224176	1.278388
00:00:00.160	1.318681	1.277656	1.284982
00:00:00.160	1.315751	1.337729	1.294505
00:00:00.160	1.329670	1.315751	1.304762
00:00:00.160	1.328205	1.291575	1.311355
00:00:00.160	1.329670	1.305495	1.310623
00:00:00.160	1.316484	1.313553	1.315018
00:00:00.160	1.297436	1.334066	1.330403
00:00:00.161	1.287912	1.342857	1.326740
00:00:00.161	1.272527	1.306960	1.313553
00:00:00.161	1.285714	1.334799	1.298901
00:00:00.162	1.290842	1.302564	1.297436
00:00:00.162	1.288645	1.317216	1.306227
00:00:00.162	1.279121	1.342857	1.301832
00:00:00.163	1.286447	1.373626	1.298168
00:00:00.163	1.317216	1.378755	1.300366
00:00:00.164	1.319414	1.345788	1.287179
00:00:00.164	1.320879	1.280586	1.303297
00:00:00.164	1.322344	1.224908	1.291575
00:00:00.165	1.320147	1.224176	1.303297
00:00:00.165	1.318681	1.258608	1.306960
00:00:00.165	1.335531	1.240293	1.295238
00:00:00.166	1.329670	1.265201	1.294505
00:00:00.166	1.295971	1.274725	1.300366
00:00:00.166	1.297436	1.290842	1.311355
00:00:00.167	1.293040	1.325275	1.312088
00:00:00.167	1.298901	1.340659	1.320879
00:00:00.199	1.330403	1.326740	1.308425
00:00:00.200	1.342857	1.354579	1.303297
00:00:00.200	1.332601	1.373626	1.304762
00:00:00.200	1.305495	1.336264	1.304762
00:00:00.201	1.281319	1.274725	1.300366
00:00:00.201	1.312088	1.267399	1.298901
00:00:00.201	1.299634	1.310623	1.298901
00:00:00.202	1.296703	1.306960	1.297436
00:00:00.202	1.309890	1.293773	1.306227
00:00:00.203	1.315018	1.283516	1.300366
00:00:00.203	1.327473	1.298168	1.296703
00:00:00.203	1.328938	1.342125	1.313553
00:00:00.204	1.316484	1.323810	1.306227
00:00:00.204	1.325275	1.318681	1.310623
00:00:00.204	1.305495	1.302564	1.303297
00:00:00.205	1.298901	1.293773	1.310623
00:00:00.205	1.323810	1.315018	1.306227
00:00:00.206	1.313553	1.322344	1.298901
00:00:00.206	1.326007	1.323810	1.304762
00:00:00.206	1.320879	1.304762	1.293040
00:00:00.206	1.306960	1.301099	1.295971
00:00:00.207	1.299634	1.304762	1.293040
00:00:00.207	1.295971	1.303297	1.292308
00:00:00.208	1.270330	1.276923	1.293040
00:00:00.208	1.278388	1.272527	1.291575
00:00:00.208	1.298901	1.316484	1.306227
00:00:00.209	1.294505	1.313553	1.298168
00:00:00.209	1.318681	1.283516	1.303297
00:00:00.209	1.320879	1.273993	1.301832
00:00:00.210	1.309890	1.274725	1.312088
00:00:00.210	1.316484	1.277656	1.309890
00:00:00.210	1.313553	1.271062	1.303297
00:00:00.211	1.323810	1.308425	1.312088
00:00:00.211	1.312821	1.314286	1.306960
00:00:00.212	1.312821	1.321612	1.312821
00:00:00.212	1.293773	1.321612	1.304029
00:00:00.212	1.294505	1.372894	1.304029
00:00:00.214	1.309158	1.397802	1.304762
00:00:00.214	1.306227	1.369963	1.303297
00:00:00.214	1.315751	1.351648	1.305495
00:00:00.217	1.373626	1.307692	1.304029
00:00:00.217	1.368498	1.271795	1.293773
00:00:00.217	1.374359	1.283516	1.307692
00:00:00.217	1.319414	1.264469	1.300366
00:00:00.217	1.267399	1.249084	1.306227
00:00:00.217	1.279121	1.245421	1.304762
00:00:00.217	1.270330	1.252747	1.298901
00:00:00.217	1.251282	1.273260	1.307692
00:00:00.218	1.258608	1.273993	1.307692
00:00:00.218	1.276190	1.251282	1.298901
00:00:00.249	1.302564	1.281319	1.304762
00:00:00.249	1.297436	1.292308	1.300366
00:00:00.250	1.314286	1.314286	1.304762
00:00:00.250	1.308425	1.333333	1.302564
00:00:00.251	1.308425	1.342857	1.300366
00:00:00.251	1.298168	1.343590	1.298168
00:00:00.251	1.302564	1.347253	1.309158
00:00:00.256	1.307692	1.338462	1.311355
00:00:00.256	1.314286	1.326740	1.303297
00:00:00.256	1.317949	1.325275	1.306227
00:00:00.256	1.335531	1.332601	1.300366
00:00:00.256	1.362637	1.364103	1.304762
00:00:00.256	1.342857	1.356777	1.314286
00:00:00.256	1.325275	1.339927	1.327473
00:00:00.256	1.312821	1.327473	1.316484
00:00:00.256	1.296703	1.289377	1.298168
00:00:00.256	1.285714	1.271795	1.306227
00:00:00.256	1.304762	1.266667	1.321612
00:00:00.256	1.296703	1.284982	1.298901
00:00:00.256	1.307692	1.263004	1.287912
00:00:00.256	1.312088	1.255678	1.295971
00:00:00.257	1.338462	1.257143	1.300366
00:00:00.257	1.340659	1.250549	1.300366
00:00:00.257	1.312088	1.250549	1.278388
00:00:00.258	1.284982	1.286447	1.281319
00:00:00.258	1.288645	1.291575	1.291575
00:00:00.258	1.312821	1.303297	1.287912
00:00:00.259	1.341392	1.334799	1.306227
00:00:00.259	1.364835	1.371429	1.306227
00:00:00.259	1.353846	1.378022	1.316484
00:00:00.260	1.312088	1.356777	1.315751
00:00:00.260	1.271062	1.339194	1.304762
00:00:00.261	1.271062	1.367766	1.323810
00:00:00.261	1.273260	1.356777	1.316484
00:00:00.261	1.292308	1.331136	1.311355
00:00:00.262	1.304029	1.307692	1.301832
00:00:00.262	1.299634	1.266667	1.290110
00:00:00.262	1.305495	1.253480	1.293040
00:00:00.263	1.304029	1.220513	1.279121
00:00:00.263	1.317949	1.265934	1.289377
00:00:00.263	1.323077	1.302564	1.280586
00:00:00.264	1.347253	1.293773	1.289377
00:00:00.264	1.336264	1.284982	1.303297
00:00:00.264	1.315018	1.274725	1.294505
00:00:00.265	1.300366	1.276923	1.304029
00:00:00.265	1.299634	1.276923	1.306960
00:00:00.266	1.289377	1.266667	1.323077
00:00:00.266	1.289377	1.255678	1.305495
00:00:00.266	1.309158	1.273993	1.313553
00:00:00.267	1.310623	1.280586	1.297436
00:00:00.299	1.311355	1.296703	1.302564
00:00:00.299	1.332601	1.326007	1.309890
00:00:00.300	1.320879	1.342857	1.298901
00:00:00.300	1.293040	1.348718	1.306960
00:00:00.300	1.257143	1.321612	1.282784
00:00:00.301	1.265934	1.328205	1.295238
00:00:00.301	1.295238	1.334066	1.297436
00:00:00.301	1.319414	1.330403	1.305495
00:00:00.302	1.336264	1.320147	1.301832
00:00:00.302	1.353114	1.326740	1.302564
00:00:00.302	1.343590	1.320147	1.306960
00:00:00.303	1.324542	1.312821	1.306960
00:00:00.303	1.293040	1.315018	1.311355
00:00:00.303	1.301099	1.301099	1.308425
00:00:00.305	1.304762	1.296703	1.305495
00:00:00.305	1.299634	1.301832	1.310623
00:00:00.305	1.317949	1.279853	1.299634
00:00:00.305	1.319414	1.296703	1.297436
00:00:00.305	1.311355	1.301099	1.303297
00:00:00.306	1.312088	1.320147	1.294505
00:00:00.306	1.297436	1.331868	1.298168
00:00:00.306	1.292308	1.295238	1.300366
00:00:00.307	1.307692	1.315018	1.300366
00:00:00.307	1.306960	1.357509	1.309158
00:00:00.307	1.300366	1.358974	1.318681
00:00:00.308	1.308425	1.346520	1.311355
00:00:00.308	1.294505	1.275458	1.284982
00:00:00.308	1.298901	1.236630	1.279853
00:00:00.310	1.302564	1.219048	1.293040
00:00:00.310	1.306227	1.226374	1.311355
00:00:00.311	1.309890	1.242491	1.304762
00:00:00.311	1.325275	1.270330	1.300366
00:00:00.311	1.332601	1.289377	1.311355
00:00:00.311	1.326007	1.314286	1.312821
00:00:00.311	1.346520	1.344322	1.310623
00:00:00.311	1.320147	1.350916	1.313553
00:00:00.314	1.271795	1.340659	1.310623
00:00:00.314	1.238095	1.320147	1.297436
00:00:00.314	1.234432	1.298168	1.286447
00:00:00.314	1.292308	1.317216	1.296703
00:00:00.314	1.347985	1.309158	1.282784
00:00:00.314	1.349451	1.312088	1.294505
00:00:00.314	1.321612	1.312821	1.294505
00:00:00.314	1.295238	1.327473	1.298168
00:00:00.320	1.268864	1.317949	1.290842
00:00:00.320	1.307692	1.300366	1.293040
00:00:00.320	1.345055	1.281319	1.298168
00:00:00.320	1.331136	1.295238	1.295971
00:00:00.320	1.315018	1.295238	1.309158
00:00:00.320	1.318681	1.299634	1.316484
00:00:00.352	1.320147	1.307692	1.309158
00:00:00.352	1.325275	1.312088	1.306960
00:00:00.352	1.320879	1.303297	1.308425
00:00:00.352	1.308425	1.297436	1.302564
00:00:00.352	1.309890	1.292308	1.295971
00:00:00.352	1.306227	1.307692	1.307692
00:00:00.352	1.300366	1.315018	1.306960
00:00:00.352	1.293773	1.310623	1.298901
00:00:00.352	1.306227	1.312088	1.300366
00:00:00.352	1.302564	1.311355	1.293773
00:00:00.352	1.294505	1.315018	1.303297
00:00:00.352	1.298901	1.320879	1.315018
00:00:00.353	1.290842	1.293040	1.300366
00:00:00.353	1.312088	1.297436	1.317216
00:00:00.354	1.334066	1.301099	1.313553
00:00:00.354	1.338462	1.299634	1.319414
00:00:00.354	1.322344	1.304029	1.310623
00:00:00.355	1.329670	1.304762	1.317216
00:00:00.355	1.326740	1.306227	1.311355
00:00:00.355	1.296703	1.303297	1.298168
00:00:00.356	1.300366	1.324542	1.290842
00:00:00.356	1.309158	1.356044	1.289377
00:00:00.356	1.308425	1.345788	1.295238
00:00:00.357	1.289377	1.317949	1.296703
00:00:00.357	1.293773	1.291575	1.292308
00:00:00.357	1.326007	1.301832	1.298901
00:00:00.358	1.319414	1.290842	1.298168
00:00:00.358	1.312088	1.301099	1.317949
00:00:00.359	1.306960	1.257143	1.314286
00:00:00.359	1.302564	1.234432	1.297436
00:00:00.359	1.308425	1.276190	1.306960
00:00:00.360	1.301832	1.279853	1.303297
00:00:00.360	1.303297	1.293040	1.315018
00:00:00.360	1.306227	1.281319	1.310623
00:00:00.361	1.285714	1.250549	1.294505
00:00:00.361	1.281319	1.273260	1.311355
00:00:00.361	1.285714	1.301832	1.304762
00:00:00.363	1.306960	1.320879	1.300366
00:00:00.363	1.345055	1.326007	1.298168
00:00:00.363	1.345055	1.326007	1.299634
00:00:00.363	1.339927	1.319414	1.295238
00:00:00.363	1.328205	1.334799	1.300366
00:00:00.364	1.310623	1.335531	1.298168
00:00:00.364	1.282051	1.331868	1.303297
00:00:00.364	1.295971	1.325275	1.294505
00:00:00.365	1.307692	1.318681	1.298901
00:00:00.365	1.307692	1.315018	1.305495
00:00:00.365	1.306227	1.312821	1.310623
00:00:00.366	1.295238	1.299634	1.323077
00:00:00.366	1.289377	1.298901	1.328205
00:00:00.398	1.290110	1.304029	1.312821
00:00:00.399	1.293773	1.307692	1.312088
00:00:00.399	1.321612	1.309158	1.312088
00:00:00.399	1.341392	1.300366	1.300366
00:00:00.400	1.353114	1.304762	1.290110
00:00:00.400	1.312088	1.284249	1.279853
00:00:00.400	1.334066	1.298168	1.294505
00:00:00.401	1.326007	1.298168	1.294505
00:00:00.401	1.311355	1.316484	1.301832
00:00:00.401	1.292308	1.313553	1.286447
00:00:00.402	1.284982	1.311355	1.270330
00:00:00.402	1.328938	1.321612	1.302564
00:00:00.403	1.315018	1.301099	1.313553
00:00:00.403	1.315751	1.295238	1.313553
00:00:00.403	1.264469	1.302564	1.315018
00:00:00.404	1.215385	1.297436	1.307692
00:00:00.404	1.287179	1.301832	1.325275
00:00:00.404	1.314286	1.297436	1.323810
00:00:00.405	1.325275	1.299634	1.323810
00:00:00.405	1.318681	1.295238	1.317216
00:00:00.405	1.306960	1.290110	1.309890
00:00:00.407	1.310623	1.300366	1.303297
00:00:00.407	1.308425	1.302564	1.276923
00:00:00.408	1.304029	1.307692	1.290110
00:00:00.408	1.304762	1.302564	1.279853
00:00:00.408	1.297436	1.302564	1.268132
00:00:00.408	1.308425	1.308425	1.271062
00:00:00.408	1.309158	1.310623	1.287179
00:00:00.408	1.334066	1.312088	1.316484
00:00:00.411	1.331868	1.310623	1.322344
00:00:00.411	1.315751	1.306227	1.295238
00:00:00.411	1.337729	1.306227	1.280586
00:00:00.411	1.361172	1.295971	1.320147
00:00:00.411	1.318681	1.300366	1.351648
00:00:00.411	1.282784	1.298901	1.326007
00:00:00.411	1.271795	1.298168	1.321612
00:00:00.411	1.295238	1.304762	1.311355
00:00:00.417	1.308425	1.311355	1.298168
00:00:00.417	1.301832	1.309158	1.295238
00:00:00.417	1.307692	1.315018	1.299634
00:00:00.417	1.314286	1.294505	1.289377
00:00:00.417	1.326740	1.309158	1.296703
00:00:00.417	1.323077	1.306960	1.289377
00:00:00.417	1.312088	1.310623	1.298168
00:00:00.417	1.311355	1.312088	1.300366
00:00:00.417	1.299634	1.307692	1.305495
00:00:00.417	1.312088	1.314286	1.317216
00:00:00.417	1.308425	1.301832	1.298168
00:00:00.417	1.305495	1.295971	1.312821
00:00:00.417	1.314286	1.302564	1.318681
00:00:00.449	1.287912	1.296703	1.304029
00:00:00.449	1.304029	1.308425	1.305495
00:00:00.449	1.305495	1.303297	1.300366
00:00:00.449	1.298901	1.309158	1.304762
00:00:00.449	1.311355	1.315751	1.305495
00:00:00.450	1.309890	1.304762	1.284249
00:00:00.450	1.309890	1.308425	1.299634
00:00:00.451	1.308425	1.311355	1.297436
00:00:00.451	1.300366	1.303297	1.303297
00:00:00.451	1.299634	1.302564	1.292308
00:00:00.452	1.316484	1.309158	1.299634
00:00:00.452	1.318681	1.310623	1.311355
00:00:00.452	1.316484	1.300366	1.304762
00:00:00.453	1.318681	1.300366	1.317216
00:00:00.453	1.321612	1.296703	1.310623
00:00:00.453	1.323077	1.288645	1.300366
00:00:00.454	1.274725	1.307692	1.316484
00:00:00.454	1.290110	1.300366	1.305495
00:00:00.454	1.314286	1.295238	1.305495
00:00:00.455	1.316484	1.297436	1.304762
00:00:00.455	1.300366	1.292308	1.290110
00:00:00.456	1.300366	1.304762	1.296703
00:00:00.456	1.295971	1.293040	1.283516
00:00:00.456	1.302564	1.307692	1.293040
00:00:00.457	1.315018	1.316484	1.300366
00:00:00.457	1.307692	1.309158	1.287912
00:00:00.457	1.320879	1.312088	1.302564
00:00:00.458	1.315018	1.312088	1.295971
00:00:00.458	1.314286	1.304762	1.304762
00:00:00.458	1.319414	1.305495	1.309158
00:00:00.459	1.305495	1.281319	1.304029
00:00:00.459	1.318681	1.301099	1.310623
00:00:00.459	1.315751	1.301832	1.318681
00:00:00.460	1.312088	1.300366	1.319414
00:00:00.460	1.318681	1.300366	1.314286
00:00:00.461	1.306227	1.290842	1.304762
00:00:00.461	1.316484	1.296703	1.304029
00:00:00.461	1.315018	1.306960	1.309158
00:00:00.462	1.304029	1.306227	1.300366
00:00:00.462	1.296703	1.309158	1.300366
00:00:00.462	1.298168	1.312088	1.306227
00:00:00.463	1.314286	1.319414	1.300366
00:00:00.463	1.311355	1.320147	1.300366
00:00:00.463	1.320879	1.317949	1.300366
00:00:00.464	1.323810	1.312088	1.292308
00:00:00.464	1.323810	1.304029	1.299634
00:00:00.464	1.335531	1.306960	1.295971
00:00:00.465	1.336264	1.311355	1.304762
00:00:00.465	1.313553	1.312088	1.310623
00:00:00.466	1.295238	1.303297	1.304762
00:00:00.498	1.301099	1.311355	1.342125
00:00:00.499	1.269597	1.302564	1.323077
00:00:00.499	1.301099	1.301099	1.304762
00:00:00.499	1.309890	1.293040	1.309158
00:00:00.499	1.293773	1.289377	1.295238
00:00:00.500	1.306227	1.297436	1.299634
00:00:00.500	1.312088	1.304029	1.298168
00:00:00.500	1.315751	1.300366	1.290842
00:00:00.503	1.328205	1.316484	1.292308
00:00:00.503	1.295971	1.303297	1.282784
00:00:00.503	1.308425	1.311355	1.296703
00:00:00.503	1.323077	1.310623	1.298168
00:00:00.503	1.317216	1.305495	1.290110
00:00:00.503	1.312088	1.312088	1.314286
00:00:00.505	1.313553	1.307692	1.306227
00:00:00.505	1.307692	1.306227	1.313553
00:00:00.505	1.304029	1.296703	1.304029
00:00:00.505	1.306960	1.292308	1.299634
00:00:00.505	1.315751	1.297436	1.309890
00:00:00.506	1.263004	1.297436	1.303297
00:00:00.506	1.297436	1.300366	1.306227
00:00:00.506	1.361172	1.307692	1.312088
00:00:00.506	1.334066	1.305495	1.300366
00:00:00.506	1.290110	1.304762	1.302564
00:00:00.506	1.288645	1.303297	1.298901
00:00:00.507	1.296703	1.302564	1.290842
00:00:00.507	1.285714	1.306227	1.300366
00:00:00.507	1.292308	1.312088	1.297436
00:00:00.513	1.287912	1.306960	1.298901
00:00:00.513	1.295971	1.312821	1.298901
00:00:00.513	1.312088	1.313553	1.298168
00:00:00.513	1.363370	1.314286	1.317949
00:00:00.513	1.342857	1.309890	1.318681
00:00:00.513	1.312088	1.301832	1.312821
00:00:00.513	1.319414	1.296703	1.309158
00:00:00.513	1.363370	1.301832	1.311355
00:00:00.513	1.334066	1.299634	1.314286
00:00:00.513	1.296703	1.297436	1.305495
00:00:00.513	1.294505	1.306960	1.304762
00:00:00.513	1.298168	1.303297	1.300366
00:00:00.513	1.312088	1.312088	1.297436
00:00:00.513	1.341392	1.315018	1.295238
00:00:00.513	1.331136	1.317949	1.298901
00:00:00.513	1.303297	1.312088	1.291575
00:00:00.514	1.309158	1.317949	1.304762
00:00:00.514	1.308425	1.317216	1.306960
00:00:00.514	1.302564	1.306227	1.306227
00:00:00.515	1.292308	1.303297	1.304029
00:00:00.515	1.298901	1.308425	1.310623
00:00:00.515	1.297436	1.304762	1.306227
00:00:00.547	1.321612	1.301832	1.316484
00:00:00.548	1.307692	1.290842	1.299634
00:00:00.548	1.305495	1.306227	1.312821
00:00:00.549	1.304762	1.301832	1.308425
00:00:00.549	1.309890	1.301832	1.306960
00:00:00.549	1.311355	1.305495	1.309890
00:00:00.550	1.312821	1.298901	1.291575
00:00:00.550	1.303297	1.306960	1.297436
00:00:00.551	1.312088	1.315751	1.304762
00:00:00.551	1.309890	1.314286	1.300366
00:00:00.551	1.298168	1.312088	1.300366
00:00:00.551	1.301832	1.317216	1.303297
00:00:00.552	1.312088	1.306227	1.298901
00:00:00.552	1.321612	1.304762	1.306227
00:00:00.553	1.292308	1.291575	1.298901
00:00:00.553	1.315018	1.309158	1.318681
00:00:00.553	1.295971	1.299634	1.306227
00:00:00.554	1.310623	1.305495	1.308425
00:00:00.554	1.315018	1.301099	1.309890
00:00:00.554	1.312088	1.299634	1.300366
00:00:00.555	1.295971	1.287179	1.297436
00:00:00.555	1.301832	1.297436	1.300366
00:00:00.555	1.310623	1.301832	1.298168
00:00:00.556	1.317216	1.303297	1.299634
00:00:00.556	1.299634	1.302564	1.285714
00:00:00.556	1.304762	1.309158	1.293773
00:00:00.557	1.327473	1.310623	1.300366
00:00:00.557	1.305495	1.312088	1.300366
00:00:00.558	1.296703	1.295238	1.290110
00:00:00.558	1.330403	1.301099	1.301832
00:00:00.558	1.328938	1.304762	1.306960
00:00:00.559	1.327473	1.306960	1.312088
00:00:00.559	1.313553	1.302564	1.313553
00:00:00.559	1.302564	1.304762	1.313553
00:00:00.560	1.298901	1.305495	1.313553
00:00:00.560	1.294505	1.301832	1.309158
00:00:00.560	1.286447	1.309158	1.306227
00:00:00.561	1.292308	1.306227	1.302564
00:00:00.561	1.301832	1.304029	1.299634
00:00:00.561	1.312088	1.300366	1.300366
00:00:00.562	1.312821	1.310623	1.299634
00:00:00.562	1.310623	1.312088	1.296703
00:00:00.563	1.320147	1.309158	1.296703
00:00:00.563	1.315018	1.308425	1.294505
00:00:00.563	1.316484	1.315751	1.305495
00:00:00.564	1.309158	1.306960	1.294505
00:00:00.564	1.310623	1.303297	1.300366
00:00:00.564	1.313553	1.298901	1.306960
00:00:00.566	1.302564	1.294505	1.304029
00:00:00.566	1.308425	1.290842	1.302564
00:00:00.598	1.315751	1.292308	1.295238
00:00:00.598	1.304762	1.287912	1.294505
00:00:00.598	1.312821	1.297436	1.309158
00:00:00.598	1.309890	1.301099	1.306960
00:00:00.600	1.306227	1.302564	1.308425
00:00:00.600	1.294505	1.294505	1.300366
00:00:00.600	1.312088	1.306960	1.301832
00:00:00.600	1.287912	1.312821	1.302564
00:00:00.600	1.301832	1.320879	1.296703
00:00:00.600	1.311355	1.329670	1.285714
00:00:00.603	1.353846	1.352381	1.303297
00:00:00.603	1.364103	1.334799	1.300366
00:00:00.603	1.344322	1.321612	1.295238
00:00:00.603	1.293773	1.310623	1.304762
00:00:00.603	1.265934	1.293040	1.306227
00:00:00.603	1.275458	1.300366	1.309158
00:00:00.603	1.271062	1.292308	1.305495
00:00:00.603	1.298168	1.283516	1.301832
00:00:00.609	1.317949	1.289377	1.305495
00:00:00.609	1.318681	1.309158	1.309158
00:00:00.609	1.312088	1.279121	1.300366
00:00:00.609	1.297436	1.252747	1.292308
00:00:00.609	1.306960	1.268132	1.295971
00:00:00.609	1.311355	1.275458	1.293040
00:00:00.609	1.315018	1.283516	1.294505
00:00:00.609	1.309158	1.292308	1.296703
00:00:00.609	1.296703	1.286447	1.286447
00:00:00.609	1.295238	1.283516	1.279853
00:00:00.609	1.306960	1.302564	1.298901
00:00:00.609	1.318681	1.326007	1.311355
00:00:00.609	1.312088	1.330403	1.306960
00:00:00.609	1.305495	1.315018	1.305495
00:00:00.609	1.298168	1.312821	1.300366
00:00:00.609	1.315018	1.319414	1.317949
00:00:00.609	1.314286	1.313553	1.310623
00:00:00.610	1.310623	1.315018	1.312821
00:00:00.610	1.309158	1.311355	1.312088
00:00:00.610	1.309890	1.307692	1.306960
00:00:00.611	1.317216	1.304029	1.300366
00:00:00.611	1.320879	1.312821	1.304762
00:00:00.612	1.315751	1.311355	1.296703
00:00:00.612	1.302564	1.309890	1.293773
00:00:00.612	1.315018	1.315018	1.293040
00:00:00.613	1.293040	1.306227	1.293773
00:00:00.613	1.329670	1.317949	1.304029
00:00:00.613	1.313553	1.312821	1.298901
00:00:00.614	1.298901	1.303297	1.297436
00:00:00.614	1.308425	1.305495	1.306227
00:00:00.614	1.300366	1.294505	1.295238
00:00:00.615	1.309158	1.309158	1.319414
00:00:00.647	1.305495	1.296703	1.304762
00:00:00.647	1.307692	1.303297	1.310623
00:00:00.648	1.315018	1.308425	1.309890
00:00:00.648	1.306227	1.298168	1.298168
00:00:00.648	1.323810	1.304762	1.307692
00:00:00.649	1.328205	1.300366	1.302564
00:00:00.649	1.323810	1.295971	1.298168
00:00:00.649	1.323810	1.310623	1.298901
00:00:00.650	1.302564	1.293773	1.280586
00:00:00.650	1.303297	1.314286	1.301832
00:00:00.651	1.283516	1.310623	1.299634
00:00:00.651	1.282051	1.310623	1.300366
00:00:00.651	1.284249	1.313553	1.300366
00:00:00.652	1.285714	1.304762	1.299634
00:00:00.652	1.298168	1.310623	1.307692
00:00:00.652	1.320879	1.312088	1.316484
00:00:00.653	1.321612	1.306227	1.310623
00:00:00.653	1.315018	1.293040	1.306960
00:00:00.653	1.325275	1.304029	1.311355
00:00:00.654	1.316484	1.303297	1.311355
00:00:00.654	1.312821	1.290842	1.296703
00:00:00.654	1.312088	1.300366	1.308425
00:00:00.656	1.309890	1.289377	1.298168
00:00:00.656	1.313553	1.294505	1.302564
00:00:00.656	1.306227	1.296703	1.287179
00:00:00.656	1.312088	1.323077	1.301832
00:00:00.656	1.307692	1.321612	1.304029
00:00:00.657	1.308425	1.312821	1.296703
00:00:00.657	1.308425	1.310623	1.295238
00:00:00.657	1.312088	1.312088	1.302564
00:00:00.658	1.312088	1.300366	1.293773
00:00:00.658	1.321612	1.304029	1.315018
00:00:00.658	1.314286	1.293040	1.308425
00:00:00.659	1.315018	1.292308	1.310623
00:00:00.659	1.314286	1.284982	1.315018
00:00:00.659	1.306227	1.285714	1.298168
00:00:00.660	1.312821	1.302564	1.312088
00:00:00.660	1.309158	1.308425	1.314286
00:00:00.661	1.306960	1.313553	1.300366
00:00:00.661	1.299634	1.315751	1.302564
00:00:00.661	1.289377	1.291575	1.284249
00:00:00.663	1.300366	1.312821	1.298901
00:00:00.663	1.309890	1.307692	1.295971
00:00:00.663	1.313553	1.309890	1.298168
00:00:00.663	1.330403	1.320147	1.304762
00:00:00.665	1.323810	1.312821	1.302564
00:00:00.665	1.334799	1.312088	1.297436
00:00:00.665	1.317216	1.302564	1.297436
00:00:00.665	1.290110	1.309158	1.308425
00:00:00.666	1.295971	1.307692	1.312821
00:00:00.697	1.302564	1.297436	1.306960
00:00:00.697	1.309158	1.308425	1.320879
00:00:00.697	1.309158	1.296703	1.315018
00:00:00.698	1.309158	1.287912	1.298168
00:00:00.703	1.311355	1.308425	1.306960
00:00:00.703	1.303297	1.289377	1.297436
00:00:00.703	1.312088	1.304029	1.300366
00:00:00.703	1.315018	1.310623	1.300366
00:00:00.703	1.309158	1.309158	1.294505
00:00:00.703	1.312088	1.306227	1.298168
00:00:00.703	1.295238	1.299634	1.287912
00:00:00.703	1.310623	1.309890	1.298901
00:00:00.703	1.308425	1.300366	1.287179
00:00:00.703	1.316484	1.310623	1.307692
00:00:00.703	1.315751	1.312821	1.304762
00:00:00.703	1.305495	1.309158	1.315018
00:00:00.703	1.315018	1.309158	1.312821
00:00:00.703	1.302564	1.293773	1.311355
00:00:00.703	1.312821	1.304762	1.312088
00:00:00.704	1.306227	1.290842	1.303297
00:00:00.704	1.320879	1.304762	1.311355
00:00:00.704	1.310623	1.302564	1.302564
00:00:00.705	1.309158	1.304029	1.303297
00:00:00.705	1.311355	1.316484	1.307692
00:00:00.705	1.308425	1.317216	1.296703
00:00:00.706	1.298901	1.317216	1.304762
00:00:00.706	1.295971	1.304762	1.298168
00:00:00.706	1.293773	1.296703	1.291575
00:00:00.707	1.319414	1.303297	1.303297
00:00:00.708	1.313553	1.294505	1.290842
00:00:00.708	1.312821	1.305495	1.309158
00:00:00.708	1.310623	1.309158	1.300366
00:00:00.708	1.300366	1.308425	1.312088
00:00:00.709	1.317216	1.305495	1.314286
00:00:00.709	1.315751	1.308425	1.320147
00:00:00.709	1.312088	1.296703	1.298168
00:00:00.710	1.315018	1.304029	1.311355
00:00:00.710	1.314286	1.300366	1.306960
00:00:00.710	1.305495	1.296703	1.302564
00:00:00.711	1.303297	1.289377	1.284249
00:00:00.711	1.309158	1.298901	1.303297
00:00:00.711	1.302564	1.293773	1.287912
00:00:00.712	1.306960	1.315751	1.300366
00:00:00.712	1.309158	1.317216	1.291575
00:00:00.712	1.306227	1.318681	1.304029
00:00:00.713	1.304029	1.304029	1.286447
00:00:00.713	1.310623	1.330403	1.302564
00:00:00.714	1.318681	1.316484	1.312088
00:00:00.714	1.317949	1.295238	1.311355
00:00:00.714	1.311355	1.290110	1.306227
00:00:00.746	1.300366	1.276923	1.308425
00:00:00.747	1.316484	1.281319	1.316484
00:00:00.747	1.299634	1.276190	1.308425
00:00:00.748	1.317949	1.286447	1.314286
00:00:00.748	1.306960	1.276923	1.308425
00:00:00.748	1.307692	1.295238	1.302564
00:00:00.749	1.295971	1.294505	1.296703
00:00:00.749	1.311355	1.326007	1.300366
00:00:00.749	1.312088	1.324542	1.293773
00:00:00.750	1.308425	1.323810	1.296703
00:00:00.750	1.307692	1.327473	1.294505
00:00:00.750	1.309158	1.325275	1.297436
00:00:00.751	1.296703	1.316484	1.292308
00:00:00.751	1.314286	1.329670	1.311355
00:00:00.751	1.306227	1.316484	1.300366
00:00:00.752	1.318681	1.327473	1.313553
00:00:00.752	1.298901	1.306227	1.298168
00:00:00.753	1.309158	1.309890	1.312088
00:00:00.753	1.309158	1.304762	1.304762
00:00:00.753	1.326007	1.311355	1.309890
00:00:00.754	1.312821	1.287912	1.308425
00:00:00.754	1.304762	1.267399	1.298901
00:00:00.754	1.309890	1.264469	1.300366
00:00:00.755	1.301099	1.272527	1.294505
00:00:00.755	1.305495	1.301099	1.297436
00:00:00.755	1.308425	1.317216	1.293773
00:00:00.756	1.300366	1.318681	1.293773
00:00:00.756	1.305495	1.309890	1.294505
00:00:00.756	1.306227	1.304762	1.294505
00:00:00.758	1.312088	1.301099	1.301832
00:00:00.758	1.314286	1.302564	1.304762
00:00:00.760	1.315018	1.303297	1.306960
00:00:00.760	1.312821	1.300366	1.309158
00:00:00.760	1.314286	1.304029	1.312821
00:00:00.760	1.306960	1.299634	1.295971
00:00:00.760	1.318681	1.309158	1.320147
00:00:00.762	1.314286	1.302564	1.313553
00:00:00.762	1.306960	1.301832	1.304029
00:00:00.762	1.310623	1.304029	1.306960
00:00:00.762	1.300366	1.297436	1.296703
00:00:00.762	1.310623	1.293040	1.304029
00:00:00.762	1.309890	1.297436	1.299634
00:00:00.762	1.312821	1.306227	1.303297
00:00:00.762	1.323810	1.312088	1.298168
00:00:00.762	1.315751	1.320147	1.295238
00:00:00.768	1.306227	1.331868	1.306227
00:00:00.768	1.298901	1.324542	1.300366
00:00:00.768	1.311355	1.319414	1.306227
00:00:00.768	1.314286	1.319414	1.309158
00:00:00.768	1.298168	1.293773	1.299634
00:00:00.801	1.312088	1.291575	1.308425
00:00:00.801	1.308425	1.283516	1.304762
00:00:00.801	1.306227	1.290110	1.308425
00:00:00.801	1.325275	1.287912	1.312088
00:00:00.801	1.317949	1.306227	1.314286
00:00:00.801	1.308425	1.312088	1.300366
00:00:00.801	1.295971	1.310623	1.302564
00:00:00.801	1.302564	1.315751	1.300366
00:00:00.801	1.300366	1.307692	1.288645
00:00:00.801	1.292308	1.315751	1.293773
00:00:00.801	1.284249	1.315018	1.290842
00:00:00.801	1.307692	1.318681	1.300366
00:00:00.801	1.319414	1.311355	1.299634
00:00:00.801	1.323810	1.299634	1.302564
00:00:00.801	1.340659	1.306227	1.305495
00:00:00.802	1.315751	1.295238	1.311355
00:00:00.802	1.317216	1.295971	1.320147
00:00:00.802	1.306960	1.287912	1.311355
00:00:00.803	1.307692	1.306960	1.314286
00:00:00.804	1.309158	1.302564	1.310623
00:00:00.804	1.300366	1.293773	1.304762
00:00:00.804	1.318681	1.305495	1.308425
00:00:00.804	1.304029	1.308425	1.298901
00:00:00.804	1.309158	1.320879	1.304762
00:00:00.805	1.312821	1.312088	1.298168
00:00:00.805	1.295971	1.290110	1.289377
00:00:00.805	1.298901	1.287179	1.291575
00:00:00.806	1.293773	1.290110	1.290842
00:00:00.806	1.303297	1.295971	1.287179
00:00:00.807	1.315751	1.318681	1.300366
00:00:00.807	1.327473	1.328938	1.309890
00:00:00.807	1.322344	1.307692	1.311355
00:00:00.808	1.314286	1.291575	1.306227
00:00:00.808	1.314286	1.284982	1.307692
00:00:00.808	1.300366	1.276923	1.300366
00:00:00.809	1.300366	1.290842	1.312821
00:00:00.809	1.307692	1.297436	1.315018
00:00:00.809	1.303297	1.298168	1.308425
00:00:00.810	1.311355	1.307692	1.302564
00:00:00.810	1.300366	1.307692	1.297436
00:00:00.811	1.315018	1.312821	1.300366
00:00:00.811	1.301099	1.305495	1.290842
00:00:00.812	1.308425	1.319414	1.294505
00:00:00.812	1.310623	1.336264	1.297436
00:00:00.812	1.309158	1.338462	1.300366
00:00:00.812	1.312088	1.326007	1.299634
00:00:00.813	1.309158	1.315018	1.303297
00:00:00.813	1.315018	1.310623	1.305495
00:00:00.813	1.304029	1.287179	1.299634
00:00:00.814	1.312088	1.300366	1.312821
00:00:00.846	1.312088	1.295238	1.309890
00:00:00.846	1.316484	1.299634	1.309158
00:00:00.847	1.311355	1.297436	1.308425
00:00:00.847	1.309890	1.290842	1.302564
00:00:00.847	1.315751	1.291575	1.303297
00:00:00.848	1.295238	1.280586	1.291575
00:00:00.848	1.309158	1.300366	1.303297
00:00:00.848	1.301832	1.304029	1.297436
00:00:00.849	1.309158	1.313553	1.297436
00:00:00.849	1.312088	1.314286	1.296703
00:00:00.850	1.304762	1.304762	1.295971
00:00:00.850	1.302564	1.306960	1.294505
00:00:00.850	1.312088	1.312088	1.297436
00:00:00.851	1.317949	1.307692	1.304029
00:00:00.851	1.317216	1.298901	1.308425
00:00:00.851	1.314286	1.293040	1.305495
00:00:00.852	1.309890	1.295971	1.311355
00:00:00.852	1.311355	1.303297	1.311355
00:00:00.852	1.312821	1.315751	1.310623
00:00:00.855	1.316484	1.318681	1.304029
00:00:00.855	1.304762	1.308425	1.298168
00:00:00.855	1.309890	1.309158	1.306960
00:00:00.855	1.293040	1.299634	1.295971
00:00:00.855	1.302564	1.309158	1.297436
00:00:00.856	1.303297	1.298168	1.284982
00:00:00.856	1.306227	1.290842	1.299634
00:00:00.856	1.308425	1.277656	1.297436
00:00:00.856	1.295238	1.280586	1.290110
00:00:00.856	1.312088	1.305495	1.298168
00:00:00.856	1.309890	1.308425	1.291575
00:00:00.859	1.315018	1.323077	1.301832
00:00:00.859	1.306227	1.312088	1.300366
00:00:00.859	1.298168	1.300366	1.309890
00:00:00.859	1.318681	1.315018	1.310623
00:00:00.859	1.300366	1.309158	1.309158
00:00:00.859	1.312088	1.317216	1.316484
00:00:00.859	1.310623	1.295971	1.309890
00:00:00.859	1.308425	1.288645	1.312821
00:00:00.865	1.312088	1.293773	1.307692
00:00:00.865	1.310623	1.308425	1.304029
00:00:00.865	1.323077	1.333333	1.305495
00:00:00.865	1.319414	1.332601	1.309158
00:00:00.865	1.320879	1.324542	1.300366
00:00:00.865	1.309890	1.310623	1.295971
00:00:00.865	1.303297	1.298901	1.294505
00:00:00.865	1.301099	1.295971	1.304762
00:00:00.865	1.311355	1.305495	1.300366
00:00:00.865	1.306227	1.312821	1.304029
00:00:00.865	1.301832	1.306960	1.304762
00:00:00.865	1.298901	1.288645	1.295238
00:00:00.898	1.317949	1.301832	1.313553
00:00:00.898	1.310623	1.306227	1.315751
00:00:00.898	1.312821	1.302564	1.315018
00:00:00.898	1.295238	1.282784	1.300366
00:00:00.898	1.303297	1.294505	1.308425
00:00:00.898	1.312088	1.314286	1.305495
00:00:00.898	1.298168	1.298168	1.287912
00:00:00.898	1.315018	1.319414	1.302564
00:00:00.900	1.315018	1.309890	1.299634
00:00:00.900	1.301099	1.301832	1.293773
00:00:00.900	1.316484	1.308425	1.297436
00:00:00.900	1.312088	1.288645	1.287912
00:00:00.901	1.312821	1.284982	1.296703
00:00:00.901	1.309890	1.276923	1.291575
00:00:00.901	1.305495	1.287179	1.308425
00:00:00.901	1.304762	1.303297	1.311355
00:00:00.901	1.301832	1.311355	1.305495
00:00:00.902	1.326740	1.324542	1.320147
00:00:00.902	1.299634	1.340659	1.302564
00:00:00.902	1.294505	1.318681	1.309890
00:00:00.903	1.315751	1.291575	1.311355
00:00:00.903	1.313553	1.298901	1.309890
00:00:00.904	1.307692	1.317949	1.312821
00:00:00.904	1.299634	1.300366	1.293040
00:00:00.904	1.310623	1.304762	1.293773
00:00:00.905	1.312088	1.310623	1.304029
00:00:00.905	1.314286	1.310623	1.306227
00:00:00.905	1.315018	1.298168	1.298168
00:00:00.906	1.313553	1.284982	1.291575
00:00:00.906	1.301832	1.290110	1.287912
00:00:00.906	1.302564	1.310623	1.290110
00:00:00.907	1.309158	1.328205	1.309890
00:00:00.907	1.309158	1.322344	1.308425
00:00:00.907	1.319414	1.329670	1.311355
00:00:00.908	1.306960	1.306227	1.312821
00:00:00.908	1.303297	1.255678	1.298901
00:00:00.909	1.303297	1.247619	1.306227
00:00:00.909	1.308425	1.264469	1.312088
00:00:00.909	1.306227	1.267399	1.300366
00:00:00.910	1.304762	1.267399	1.302564
00:00:00.910	1.312088	1.298168	1.298901
00:00:00.910	1.306960	1.306227	1.292308
00:00:00.911	1.314286	1.308425	1.295971
00:00:00.911	1.309890	1.327473	1.294505
00:00:00.911	1.304762	1.312821	1.284982
00:00:00.912	1.302564	1.307692	1.293040
00:00:00.912	1.309158	1.291575	1.297436
00:00:00.912	1.306960	1.295238	1.308425
00:00:00.913	1.309890	1.312088	1.312821
00:00:00.913	1.297436	1.301099	1.308425
00:00:00.946	1.315018	1.304029	1.309890
00:00:00.946	1.308425	1.296703	1.298901
00:00:00.946	1.317949	1.301832	1.312088
00:00:00.946	1.312088	1.311355	1.306960
00:00:00.947	1.320147	1.328938	1.304762
00:00:00.947	1.309890	1.336996	1.309158
00:00:00.948	1.298901	1.317216	1.300366
00:00:00.948	1.297436	1.318681	1.300366
00:00:00.948	1.300366	1.320879	1.294505
00:00:00.949	1.293773	1.321612	1.283516
00:00:00.949	1.304762	1.337729	1.296703
00:00:00.949	1.293773	1.307692	1.295971
00:00:00.951	1.309158	1.309890	1.292308
00:00:00.951	1.311355	1.301832	1.300366
00:00:00.951	1.311355	1.304029	1.308425
00:00:00.953	1.317949	1.306227	1.309158
00:00:00.953	1.313553	1.308425	1.309890
00:00:00.953	1.306227	1.300366	1.306227
00:00:00.953	1.307692	1.306960	1.314286
00:00:00.953	1.308425	1.298168	1.317216
00:00:00.956	1.304762	1.287912	1.305495
00:00:00.956	1.306227	1.287179	1.302564
00:00:00.956	1.317949	1.293773	1.308425
00:00:00.956	1.322344	1.299634	1.306960
00:00:00.956	1.315751	1.291575	1.300366
00:00:00.956	1.320147	1.301832	1.300366
00:00:00.956	1.311355	1.314286	1.311355
00:00:00.956	1.288645	1.317949	1.304029
00:00:00.956	1.306227	1.318681	1.292308
00:00:00.956	1.301832	1.312821	1.285714
00:00:00.956	1.320147	1.318681	1.299634
00:00:00.956	1.313553	1.319414	1.289377
00:00:00.962	1.311355	1.313553	1.300366
00:00:00.962	1.313553	1.304029	1.305495
00:00:00.962	1.300366	1.289377	1.302564
00:00:00.962	1.310623	1.276190	1.304029
00:00:00.962	1.318681	1.282784	1.310623
00:00:00.962	1.317949	1.287912	1.310623
00:00:00.962	1.293773	1.280586	1.300366
00:00:00.962	1.288645	1.276923	1.305495
00:00:00.962	1.304762	1.290842	1.306227
00:00:00.962	1.299634	1.305495	1.294505
00:00:00.962	1.310623	1.332601	1.308425
00:00:00.962	1.311355	1.322344	1.298168
00:00:00.962	1.312088	1.314286	1.287912
00:00:00.962	1.313553	1.331136	1.300366
00:00:00.962	1.307692	1.347985	1.298901
00:00:00.962	1.319414	1.334799	1.304029
00:00:00.963	1.313553	1.320147	1.300366
00:00:00.963	1.318681	1.300366	1.311355
