timestamp	ch1	ch2	ch3
00:00:00.000	1.305495	1.298901	1.311355
00:00:00.000	1.313553	1.282784	1.313553
00:00:00.000	1.306227	1.295238	1.317216
00:00:00.001	1.301832	1.290842	1.309158
00:00:00.001	1.190476	1.276923	1.310623
00:00:00.001	1.216850	1.278388	1.300366
00:00:00.002	1.311355	1.315751	1.308425
00:00:00.002	1.410256	1.348718	1.317949
00:00:00.002	1.439560	1.375092	1.310623
00:00:00.003	1.356044	1.333333	1.294505
00:00:00.003	1.276923	1.283516	1.294505
00:00:00.004	1.268864	1.231502	1.302564
00:00:00.004	1.230037	1.243956	1.297436
00:00:00.004	1.221245	1.239560	1.292308
00:00:00.005	1.195604	1.209524	1.286447
00:00:00.005	1.225641	1.241758	1.296703
00:00:00.005	1.311355	1.323077	1.300366
00:00:00.006	1.369963	1.356044	1.309158
00:00:00.006	1.408791	1.342125	1.314286
00:00:00.006	1.428571	1.309890	1.308425
00:00:00.007	1.360440	1.270330	1.311355
00:00:00.007	1.304029	1.279853	1.317216
00:00:00.007	1.245421	1.284249	1.304029
00:00:00.008	1.254945	1.301832	1.314286
00:00:00.008	1.252015	1.326007	1.305495
00:00:00.040	1.276923	1.312821	1.296703
00:00:00.041	1.294505	1.309158	1.312088
00:00:00.041	1.319414	1.312088	1.293773
00:00:00.041	1.353114	1.341392	1.305495
00:00:00.042	1.343590	1.338462	1.294505
00:00:00.042	1.345788	1.343590	1.298168
00:00:00.042	1.288645	1.334066	1.299634
00:00:00.043	1.261538	1.320147	1.297436
00:00:00.043	1.295971	1.312088	1.294505
00:00:00.044	1.337729	1.282784	1.295971
00:00:00.044	1.370696	1.279853	1.298168
00:00:00.044	1.369231	1.290110	1.315751
00:00:00.045	1.347253	1.307692	1.316484
00:00:00.045	1.328938	1.311355	1.306960
00:00:00.045	1.313553	1.314286	1.320879
00:00:00.046	1.263736	1.311355	1.309158
00:00:00.046	1.271062	1.295238	1.300366
00:00:00.046	1.306227	1.301832	1.312821
00:00:00.049	1.299634	1.296703	1.301832
00:00:00.049	1.308425	1.283516	1.290842
00:00:00.049	1.331868	1.315751	1.296703
00:00:00.049	1.332601	1.311355	1.293773
00:00:00.049	1.313553	1.299634	1.287179
00:00:00.049	1.315751	1.336996	1.293773
00:00:00.049	1.304029	1.358242	1.294505
00:00:00.049	1.307692	1.356044	1.296703
00:00:00.052	1.305495	1.341392	1.309158
00:00:00.052	1.305495	1.322344	1.309158
00:00:00.052	1.308425	1.313553	1.316484
00:00:00.052	1.309158	1.330403	1.318681
00:00:00.052	1.295971	1.343590	1.312821
00:00:00.052	1.298168	1.329670	1.314286
00:00:00.052	1.304762	1.275458	1.315018
00:00:00.052	1.312088	1.276190	1.303297
00:00:00.052	1.314286	1.310623	1.314286
00:00:00.053	1.320147	1.367033	1.308425
00:00:00.053	1.309158	1.326740	1.293773
00:00:00.054	1.304029	1.255678	1.298901
00:00:00.054	1.309890	1.225641	1.293773
00:00:00.054	1.298901	1.209524	1.276923
00:00:00.055	1.304762	1.213919	1.295971
00:00:00.055	1.306227	1.207326	1.298901
00:00:00.055	1.304762	1.171429	1.276923
00:00:00.056	1.300366	1.218315	1.290110
00:00:00.056	1.312821	1.301832	1.303297
00:00:00.056	1.295238	1.312088	1.298168
00:00:00.057	1.306227	1.336996	1.310623
00:00:00.057	1.307692	1.361905	1.315751
00:00:00.058	1.305495	1.351648	1.308425
00:00:00.058	1.312088	1.390476	1.312088
00:00:00.090	1.316484	1.386081	1.313553
00:00:00.090	1.318681	1.341392	1.314286
00:00:00.091	1.323810	1.331868	1.304762
00:00:00.091	1.320147	1.331868	1.298901
00:00:00.091	1.321612	1.317949	1.301832
00:00:00.092	1.328938	1.316484	1.301832
00:00:00.092	1.312088	1.317216	1.297436
00:00:00.093	1.311355	1.322344	1.303297
00:00:00.093	1.287912	1.293773	1.285714
00:00:00.093	1.309158	1.296703	1.287179
00:00:00.094	1.315018	1.318681	1.308425
00:00:00.095	1.293773	1.312821	1.294505
00:00:00.095	1.293040	1.321612	1.301832
00:00:00.095	1.282784	1.301099	1.303297
00:00:00.095	1.284982	1.301099	1.309890
00:00:00.095	1.284249	1.294505	1.304029
00:00:00.096	1.329670	1.298901	1.318681
00:00:00.096	1.331868	1.295971	1.307692
00:00:00.096	1.328205	1.309158	1.311355
00:00:00.097	1.324542	1.297436	1.298901
00:00:00.097	1.306227	1.304029	1.303297
00:00:00.098	1.279853	1.285714	1.288645
00:00:00.098	1.284249	1.282051	1.290842
00:00:00.098	1.293773	1.293773	1.293773
00:00:00.099	1.298901	1.300366	1.303297
00:00:00.099	1.315018	1.290110	1.300366
00:00:00.099	1.344322	1.289377	1.304029
00:00:00.100	1.332601	1.287179	1.300366
00:00:00.100	1.315018	1.312088	1.312821
00:00:00.100	1.279121	1.309158	1.306960
00:00:00.101	1.313553	1.314286	1.312821
00:00:00.101	1.354579	1.329670	1.321612
00:00:00.101	1.372161	1.348718	1.320879
00:00:00.102	1.358242	1.327473	1.310623
00:00:00.102	1.356777	1.318681	1.307692
00:00:00.103	1.317216	1.301832	1.297436
00:00:00.103	1.292308	1.323810	1.299634
00:00:00.103	1.275458	1.328938	1.293773
00:00:00.104	1.256410	1.329670	1.286447
00:00:00.104	1.256410	1.329670	1.299634
00:00:00.104	1.265934	1.320147	1.300366
00:00:00.105	1.246886	1.290110	1.290110
00:00:00.105	1.191209	1.271795	1.295971
00:00:00.105	1.223443	1.267399	1.311355
00:00:00.106	1.303297	1.294505	1.306960
00:00:00.106	1.397070	1.320879	1.306227
00:00:00.106	1.437363	1.304029	1.311355
00:00:00.107	1.419780	1.294505	1.315018
00:00:00.107	1.344322	1.312821	1.316484
00:00:00.108	1.284982	1.300366	1.317949
00:00:00.140	1.271062	1.255678	1.309890
00:00:00.140	1.330403	1.243956	1.304762
00:00:00.140	1.370696	1.243956	1.292308
00:00:00.141	1.364835	1.315751	1.306227
00:00:00.141	1.320147	1.354579	1.300366
00:00:00.142	1.278388	1.328938	1.287912
00:00:00.142	1.255678	1.298168	1.297436
00:00:00.142	1.271795	1.297436	1.286447
00:00:00.143	1.289377	1.310623	1.283516
00:00:00.143	1.312821	1.321612	1.308425
00:00:00.143	1.326007	1.309158	1.306227
00:00:00.145	1.309158	1.306960	1.309890
00:00:00.145	1.316484	1.315018	1.313553
00:00:00.145	1.317216	1.303297	1.309158
00:00:00.145	1.312821	1.302564	1.313553
00:00:00.145	1.313553	1.326007	1.311355
00:00:00.145	1.312088	1.301099	1.309890
00:00:00.147	1.309890	1.304029	1.307692
00:00:00.147	1.304762	1.329670	1.308425
00:00:00.147	1.309890	1.330403	1.309158
00:00:00.147	1.315751	1.326740	1.297436
00:00:00.147	1.324542	1.318681	1.298901
00:00:00.150	1.322344	1.347253	1.303297
00:00:00.150	1.317949	1.315751	1.300366
00:00:00.150	1.318681	1.369963	1.302564
00:00:00.150	1.314286	1.392674	1.299634
00:00:00.150	1.300366	1.385348	1.295971
00:00:00.150	1.304029	1.337729	1.299634
00:00:00.150	1.312088	1.231502	1.312088
00:00:00.150	1.306227	1.173626	1.304029
00:00:00.150	1.306960	1.164103	1.306227
00:00:00.151	1.290110	1.117949	1.295238
00:00:00.151	1.284249	1.162637	1.297436
00:00:00.152	1.297436	1.257875	1.306960
00:00:00.152	1.292308	1.334799	1.304029
00:00:00.152	1.294505	1.373626	1.294505
00:00:00.153	1.300366	1.383150	1.301832
00:00:00.153	1.302564	1.320147	1.287912
00:00:00.153	1.327473	1.297436	1.294505
00:00:00.154	1.334799	1.299634	1.302564
00:00:00.154	1.315751	1.304762	1.290842
00:00:00.154	1.317949	1.335531	1.305495
00:00:00.155	1.314286	1.340659	1.304762
00:00:00.155	1.292308	1.338462	1.298168
00:00:00.155	1.306227	1.360440	1.315751
00:00:00.156	1.302564	1.364835	1.313553
00:00:00.156	1.313553	1.319414	1.316484
00:00:00.157	1.332601	1.295971	1.320147
00:00:00.157	1.320147	1.299634	1.319414
00:00:00.157	1.307692	1.304762	1.315018
00:00:00.189	1.306227	1.309158	1.316484
00:00:00.190	1.310623	1.294505	1.308425
00:00:00.190	1.307692	1.264469	1.296703
00:00:00.191	1.332601	1.283516	1.292308
00:00:00.191	1.323810	1.331136	1.298901
00:00:00.191	1.330403	1.352381	1.300366
00:00:00.192	1.323077	1.331868	1.294505
00:00:00.192	1.300366	1.276190	1.289377
00:00:00.192	1.309158	1.248352	1.304762
00:00:00.193	1.307692	1.252747	1.303297
00:00:00.193	1.315018	1.292308	1.305495
00:00:00.193	1.309158	1.361905	1.305495
00:00:00.194	1.298901	1.372894	1.306960
00:00:00.194	1.274725	1.386081	1.315751
00:00:00.194	1.261538	1.306960	1.318681
00:00:00.195	1.259341	1.266667	1.309158
00:00:00.195	1.293040	1.265201	1.311355
00:00:00.196	1.308425	1.330403	1.312821
00:00:00.196	1.323810	1.317216	1.298168
00:00:00.196	1.342125	1.276923	1.304762
00:00:00.197	1.310623	1.224176	1.287912
00:00:00.197	1.300366	1.255678	1.298901
00:00:00.197	1.224176	1.276923	1.297436
00:00:00.198	1.288645	1.288645	1.305495
00:00:00.199	1.342125	1.274725	1.302564
00:00:00.199	1.369231	1.309890	1.289377
00:00:00.199	1.403663	1.363370	1.289377
00:00:00.199	1.381685	1.373626	1.296703
00:00:00.199	1.364835	1.353114	1.300366
00:00:00.200	1.317949	1.307692	1.305495
00:00:00.200	1.286447	1.301099	1.312088
00:00:00.201	1.289377	1.297436	1.309890
00:00:00.201	1.322344	1.301832	1.309158
00:00:00.201	1.272527	1.294505	1.297436
00:00:00.202	1.259341	1.294505	1.309158
00:00:00.202	1.259341	1.293040	1.312821
00:00:00.202	1.237363	1.305495	1.304029
00:00:00.203	1.255678	1.310623	1.298168
00:00:00.203	1.308425	1.318681	1.303297
00:00:00.203	1.321612	1.304029	1.304029
00:00:00.204	1.333333	1.301099	1.290842
00:00:00.204	1.329670	1.294505	1.287179
00:00:00.204	1.339927	1.334799	1.296703
00:00:00.205	1.336264	1.366300	1.301832
00:00:00.205	1.320879	1.355311	1.312088
00:00:00.206	1.312088	1.324542	1.312821
00:00:00.206	1.308425	1.289377	1.304029
00:00:00.206	1.311355	1.266667	1.316484
00:00:00.207	1.306227	1.249084	1.319414
00:00:00.207	1.327473	1.246886	1.312088
00:00:00.239	1.335531	1.345788	1.317949
00:00:00.241	1.301832	1.373626	1.307692
00:00:00.241	1.290842	1.359707	1.305495
00:00:00.241	1.306227	1.293773	1.290842
00:00:00.241	1.317216	1.219780	1.296703
00:00:00.241	1.309158	1.221245	1.306960
00:00:00.241	1.309890	1.236630	1.296703
00:00:00.244	1.271795	1.267399	1.289377
00:00:00.244	1.286447	1.327473	1.298901
00:00:00.244	1.304029	1.330403	1.294505
00:00:00.244	1.317949	1.309158	1.302564
00:00:00.244	1.320147	1.320879	1.304029
00:00:00.244	1.317949	1.331136	1.294505
00:00:00.244	1.317216	1.335531	1.315751
00:00:00.244	1.305495	1.306227	1.316484
00:00:00.247	1.307692	1.309158	1.313553
00:00:00.247	1.306960	1.321612	1.314286
00:00:00.247	1.298901	1.320879	1.314286
00:00:00.247	1.290842	1.289377	1.311355
00:00:00.247	1.312088	1.279853	1.305495
00:00:00.247	1.338462	1.301099	1.305495
00:00:00.247	1.361172	1.323077	1.298901
00:00:00.247	1.356777	1.353114	1.298168
00:00:00.247	1.309890	1.355311	1.286447
00:00:00.248	1.298168	1.325275	1.296703
00:00:00.248	1.312088	1.294505	1.298901
00:00:00.248	1.312821	1.279853	1.304762
00:00:00.249	1.323810	1.257875	1.303297
00:00:00.249	1.321612	1.252747	1.304029
00:00:00.250	1.315018	1.265201	1.291575
00:00:00.250	1.313553	1.301099	1.306960
00:00:00.251	1.309158	1.331136	1.315018
00:00:00.251	1.300366	1.348718	1.312821
00:00:00.251	1.297436	1.351648	1.315751
00:00:00.251	1.285714	1.343590	1.315751
00:00:00.252	1.245421	1.334066	1.315751
00:00:00.252	1.280586	1.312821	1.308425
00:00:00.252	1.305495	1.293773	1.296703
00:00:00.253	1.328938	1.279853	1.301832
00:00:00.253	1.328938	1.249084	1.295238
00:00:00.253	1.312821	1.235897	1.293773
00:00:00.254	1.315751	1.279121	1.295971
00:00:00.254	1.314286	1.306960	1.294505
00:00:00.255	1.312088	1.351648	1.305495
00:00:00.255	1.323810	1.382418	1.305495
00:00:00.255	1.312088	1.342125	1.300366
00:00:00.256	1.317949	1.320879	1.313553
00:00:00.256	1.317216	1.286447	1.309158
00:00:00.256	1.310623	1.257143	1.310623
00:00:00.257	1.323810	1.277656	1.326740
00:00:00.289	1.312821	1.267399	1.318681
00:00:00.289	1.309158	1.283516	1.323810
00:00:00.290	1.315751	1.321612	1.306960
00:00:00.290	1.279853	1.309158	1.295971
00:00:00.290	1.275458	1.320147	1.309890
00:00:00.291	1.282051	1.320147	1.290842
00:00:00.291	1.286447	1.312088	1.288645
00:00:00.291	1.307692	1.334066	1.278388
00:00:00.292	1.290842	1.329670	1.288645
00:00:00.292	1.295971	1.317216	1.287179
00:00:00.292	1.343590	1.333333	1.294505
00:00:00.293	1.455678	1.317949	1.318681
00:00:00.293	1.380952	1.312088	1.316484
00:00:00.294	1.271062	1.309158	1.300366
00:00:00.294	1.225641	1.297436	1.323810
00:00:00.294	1.215385	1.290842	1.314286
00:00:00.295	1.282784	1.295238	1.300366
00:00:00.295	1.356777	1.293773	1.279853
00:00:00.295	1.338462	1.281319	1.273993
00:00:00.296	1.323810	1.292308	1.294505
00:00:00.296	1.400733	1.305495	1.300366
00:00:00.296	1.325275	1.312821	1.292308
00:00:00.297	1.269597	1.317949	1.292308
00:00:00.297	1.284982	1.320147	1.300366
00:00:00.297	1.328938	1.320147	1.304762
00:00:00.298	1.337729	1.306960	1.320879
00:00:00.298	1.323810	1.276923	1.294505
00:00:00.299	1.260073	1.289377	1.292308
00:00:00.299	1.243223	1.295238	1.311355
00:00:00.299	1.269597	1.282784	1.320879
00:00:00.300	1.265201	1.284249	1.331868
00:00:00.300	1.270330	1.300366	1.350183
00:00:00.300	1.248352	1.298901	1.312821
00:00:00.301	1.205861	1.282051	1.309158
00:00:00.301	1.285714	1.271795	1.331868
00:00:00.301	1.591941	1.326007	1.293773
00:00:00.302	1.574359	1.368498	1.354579
00:00:00.302	1.312821	1.359707	1.394139
00:00:00.304	1.217582	1.315018	1.251282
00:00:00.304	1.239560	1.293773	1.197802
00:00:00.304	1.419780	1.273993	1.249084
00:00:00.307	1.264469	1.282784	1.273993
00:00:00.307	1.142125	1.318681	1.271795
00:00:00.307	1.222711	1.339194	1.298901
00:00:00.307	1.317216	1.349451	1.323810
00:00:00.307	1.363370	1.353114	1.374359
00:00:00.307	1.366300	1.315751	1.376557
00:00:00.307	1.338462	1.295971	1.332601
00:00:00.307	1.357509	1.286447	1.317216
00:00:00.307	1.287179	1.279121	1.306227
00:00:00.339	1.471795	1.269597	1.279853
00:00:00.339	1.271062	1.263736	1.262271
00:00:00.339	1.241758	1.284982	1.281319
00:00:00.342	1.287912	1.315751	1.285714
00:00:00.342	1.378022	1.336264	1.250549
00:00:00.342	1.312821	1.316484	1.224176
00:00:00.342	1.430769	1.319414	1.268132
00:00:00.342	1.329670	1.344322	1.323810
00:00:00.342	1.194139	1.324542	1.328205
00:00:00.342	1.193407	1.322344	1.316484
00:00:00.342	1.276190	1.322344	1.315018
00:00:00.343	1.318681	1.339927	1.313553
00:00:00.343	1.314286	1.325275	1.314286
00:00:00.343	1.320879	1.347985	1.305495
00:00:00.344	1.317216	1.330403	1.314286
00:00:00.344	1.308425	1.298901	1.314286
00:00:00.344	1.302564	1.284982	1.323810
00:00:00.345	1.290842	1.267399	1.321612
00:00:00.345	1.290110	1.252015	1.313553
00:00:00.345	1.298168	1.197802	1.304762
00:00:00.346	1.321612	1.186813	1.315751
00:00:00.346	1.334799	1.224908	1.316484
00:00:00.346	1.331136	1.282784	1.312821
00:00:00.347	1.317216	1.272527	1.315751
00:00:00.347	1.309158	1.230769	1.306960
00:00:00.348	1.309890	1.270330	1.297436
00:00:00.348	1.297436	1.313553	1.293773
00:00:00.348	1.289377	1.278388	1.300366
00:00:00.349	1.312821	1.334066	1.323810
00:00:00.349	1.318681	1.353114	1.303297
00:00:00.349	1.306227	1.377289	1.298168
00:00:00.350	1.314286	1.374359	1.312821
00:00:00.350	1.314286	1.372161	1.302564
00:00:00.350	1.305495	1.348718	1.295238
00:00:00.351	1.316484	1.363370	1.306960
00:00:00.351	1.308425	1.329670	1.293773
00:00:00.351	1.300366	1.286447	1.291575
00:00:00.352	1.306227	1.261538	1.298901
00:00:00.352	1.302564	1.286447	1.287179
00:00:00.353	1.306227	1.323810	1.299634
00:00:00.353	1.311355	1.349451	1.292308
00:00:00.353	1.313553	1.340659	1.295971
00:00:00.354	1.316484	1.331868	1.311355
00:00:00.354	1.299634	1.340659	1.298168
00:00:00.354	1.301832	1.329670	1.316484
00:00:00.356	1.303297	1.320879	1.325275
00:00:00.356	1.311355	1.304762	1.315018
00:00:00.356	1.306227	1.300366	1.302564
00:00:00.356	1.319414	1.338462	1.312088
00:00:00.356	1.315751	1.350183	1.300366
00:00:00.388	1.351648	1.329670	1.306960
00:00:00.389	1.358974	1.328205	1.293773
00:00:00.389	1.328205	1.290110	1.303297
00:00:00.389	1.292308	1.197070	1.290842
00:00:00.390	1.285714	1.185348	1.297436
00:00:00.390	1.312088	1.230037	1.300366
00:00:00.390	1.301832	1.272527	1.298901
00:00:00.391	1.308425	1.317216	1.304029
00:00:00.391	1.306227	1.308425	1.299634
00:00:00.392	1.303297	1.238828	1.291575
00:00:00.392	1.298168	1.222711	1.299634
00:00:00.392	1.308425	1.252747	1.314286
00:00:00.393	1.306960	1.280586	1.312821
00:00:00.393	1.306960	1.319414	1.322344
00:00:00.393	1.304029	1.367033	1.310623
00:00:00.394	1.307692	1.412454	1.306227
00:00:00.394	1.307692	1.405861	1.298168
00:00:00.394	1.299634	1.367033	1.291575
00:00:00.395	1.305495	1.340659	1.279121
00:00:00.395	1.310623	1.332601	1.295971
00:00:00.395	1.304029	1.295238	1.300366
00:00:00.396	1.313553	1.273993	1.300366
00:00:00.396	1.319414	1.287912	1.306960
00:00:00.397	1.315018	1.249084	1.300366
00:00:00.397	1.306960	1.213919	1.293773
00:00:00.397	1.312088	1.233700	1.300366
00:00:00.398	1.314286	1.259341	1.298168
00:00:00.398	1.314286	1.265201	1.297436
00:00:00.398	1.315751	1.280586	1.309158
00:00:00.399	1.306227	1.274725	1.304762
00:00:00.399	1.304029	1.306960	1.313553
00:00:00.399	1.309890	1.331136	1.317216
00:00:00.401	1.312088	1.351648	1.327473
00:00:00.401	1.305495	1.338462	1.317216
00:00:00.401	1.315751	1.331868	1.317216
00:00:00.401	1.306227	1.319414	1.302564
00:00:00.403	1.303297	1.312821	1.309890
00:00:00.403	1.312088	1.321612	1.313553
00:00:00.403	1.309890	1.319414	1.297436
00:00:00.403	1.315751	1.337729	1.304762
00:00:00.403	1.310623	1.327473	1.295971
00:00:00.403	1.302564	1.321612	1.287179
00:00:00.403	1.312821	1.346520	1.294505
00:00:00.406	1.313553	1.372161	1.297436
00:00:00.406	1.308425	1.371429	1.290842
00:00:00.406	1.321612	1.369231	1.299634
00:00:00.406	1.303297	1.312821	1.298901
00:00:00.406	1.313553	1.331868	1.310623
00:00:00.406	1.317949	1.306227	1.306960
00:00:00.406	1.313553	1.268132	1.318681
00:00:00.438	1.314286	1.233700	1.317949
00:00:00.438	1.307692	1.201465	1.309890
00:00:00.440	1.306227	1.269597	1.309890
00:00:00.440	1.303297	1.281319	1.310623
00:00:00.440	1.298901	1.237363	1.306960
00:00:00.440	1.320147	1.219048	1.300366
00:00:00.440	1.315751	1.247619	1.294505
00:00:00.441	1.309158	1.312088	1.295238
00:00:00.441	1.319414	1.339194	1.293040
00:00:00.441	1.309158	1.332601	1.298168
00:00:00.442	1.313553	1.394139	1.298901
00:00:00.442	1.304762	1.370696	1.294505
00:00:00.442	1.301832	1.425641	1.298901
00:00:00.443	1.313553	1.361172	1.319414
00:00:00.443	1.302564	1.279853	1.323077
00:00:00.443	1.312088	1.268864	1.315018
00:00:00.444	1.311355	1.264469	1.319414
00:00:00.444	1.312088	1.261538	1.313553
00:00:00.444	1.312088	1.268132	1.309158
00:00:00.445	1.312088	1.172161	1.296703
00:00:00.445	1.309158	1.169963	1.286447
00:00:00.446	1.315018	1.253480	1.302564
00:00:00.446	1.310623	1.312821	1.299634
00:00:00.446	1.293040	1.328205	1.284982
00:00:00.447	1.320147	1.359707	1.300366
00:00:00.447	1.324542	1.343590	1.295238
00:00:00.447	1.302564	1.306227	1.282784
00:00:00.448	1.306960	1.331868	1.284982
00:00:00.448	1.310623	1.350183	1.298901
00:00:00.448	1.313553	1.345788	1.307692
00:00:00.449	1.308425	1.334066	1.315751
00:00:00.449	1.311355	1.313553	1.309890
00:00:00.449	1.301832	1.293040	1.305495
00:00:00.450	1.299634	1.302564	1.318681
00:00:00.450	1.299634	1.332601	1.317949
00:00:00.451	1.309890	1.444689	1.315751
00:00:00.451	1.314286	1.458608	1.312821
00:00:00.451	1.318681	1.415385	1.309158
00:00:00.452	1.309158	1.359707	1.304029
00:00:00.452	1.317949	1.293773	1.300366
00:00:00.452	1.310623	1.265934	1.300366
00:00:00.453	1.315018	1.222711	1.285714
00:00:00.453	1.295971	1.132601	1.268864
00:00:00.453	1.309890	1.185348	1.290110
00:00:00.454	1.309158	1.253480	1.299634
00:00:00.454	1.302564	1.260806	1.295238
00:00:00.454	1.313553	1.279121	1.307692
00:00:00.455	1.307692	1.277656	1.305495
00:00:00.455	1.306960	1.287179	1.304029
00:00:00.456	1.325275	1.290110	1.323077
00:00:00.488	1.313553	1.294505	1.313553
00:00:00.488	1.306960	1.306960	1.306227
00:00:00.488	1.315751	1.353846	1.309890
00:00:00.489	1.307692	1.381685	1.298168
00:00:00.489	1.311355	1.366300	1.309158
00:00:00.490	1.300366	1.320879	1.294505
00:00:00.490	1.310623	1.354579	1.300366
00:00:00.490	1.317949	1.362637	1.306227
00:00:00.491	1.308425	1.328938	1.295971
00:00:00.492	1.312088	1.317949	1.300366
00:00:00.492	1.320879	1.322344	1.298901
00:00:00.492	1.311355	1.293040	1.286447
00:00:00.492	1.316484	1.275458	1.302564
00:00:00.492	1.312088	1.225641	1.304029
00:00:00.493	1.307692	1.252747	1.309158
00:00:00.493	1.305495	1.290110	1.315018
00:00:00.493	1.296703	1.299634	1.312821
00:00:00.494	1.295238	1.283516	1.312088
00:00:00.494	1.316484	1.314286	1.312821
00:00:00.495	1.311355	1.311355	1.311355
00:00:00.497	1.311355	1.303297	1.306227
00:00:00.497	1.313553	1.260806	1.297436
00:00:00.497	1.300366	1.244689	1.287179
00:00:00.497	1.300366	1.265934	1.295238
00:00:00.497	1.311355	1.285714	1.294505
00:00:00.497	1.304762	1.304762	1.300366
00:00:00.497	1.317216	1.340659	1.308425
00:00:00.497	1.310623	1.308425	1.284249
00:00:00.499	1.312821	1.290842	1.303297
00:00:00.499	1.310623	1.323077	1.313553
00:00:00.499	1.312821	1.318681	1.319414
00:00:00.499	1.308425	1.290842	1.315018
00:00:00.499	1.306227	1.306960	1.315751
00:00:00.503	1.311355	1.321612	1.323077
00:00:00.503	1.313553	1.342125	1.317216
00:00:00.503	1.306960	1.348718	1.313553
00:00:00.503	1.314286	1.393407	1.317216
00:00:00.503	1.314286	1.507692	1.323810
00:00:00.503	1.322344	1.496703	1.312821
00:00:00.503	1.305495	1.341392	1.297436
00:00:00.503	1.314286	1.233700	1.302564
00:00:00.503	1.316484	1.190476	1.300366
00:00:00.503	1.323810	1.172161	1.293040
00:00:00.503	1.319414	1.188278	1.278388
00:00:00.503	1.320147	1.240293	1.297436
00:00:00.504	1.319414	1.285714	1.300366
00:00:00.504	1.309890	1.312821	1.291575
00:00:00.505	1.309890	1.245421	1.300366
00:00:00.505	1.300366	1.201465	1.304762
00:00:00.505	1.289377	1.264469	1.300366
00:00:00.537	1.287179	1.300366	1.310623
00:00:00.538	1.277656	1.244689	1.298901
00:00:00.538	1.287179	1.282051	1.298168
00:00:00.539	1.317949	1.335531	1.304029
00:00:00.539	1.317949	1.330403	1.300366
00:00:00.539	1.309158	1.331868	1.304029
00:00:00.540	1.302564	1.313553	1.289377
00:00:00.540	1.312821	1.328205	1.292308
00:00:00.540	1.315751	1.353114	1.294505
00:00:00.541	1.311355	1.356044	1.301832
00:00:00.541	1.312088	1.362637	1.293773
00:00:00.541	1.302564	1.339194	1.295238
00:00:00.542	1.311355	1.325275	1.308425
00:00:00.542	1.305495	1.294505	1.299634
00:00:00.542	1.317949	1.287912	1.316484
00:00:00.543	1.310623	1.293040	1.309158
00:00:00.544	1.305495	1.312088	1.316484
00:00:00.544	1.305495	1.311355	1.314286
00:00:00.544	1.301832	1.319414	1.319414
00:00:00.544	1.312088	1.348718	1.313553
00:00:00.545	1.311355	1.349451	1.316484
00:00:00.545	1.316484	1.342125	1.300366
00:00:00.545	1.315751	1.344322	1.302564
00:00:00.546	1.320879	1.361172	1.299634
00:00:00.546	1.317216	1.349451	1.294505
00:00:00.546	1.321612	1.331868	1.300366
00:00:00.547	1.315751	1.309890	1.292308
00:00:00.547	1.327473	1.304029	1.295971
00:00:00.547	1.320879	1.349451	1.300366
00:00:00.548	1.321612	1.376557	1.304762
00:00:00.548	1.313553	1.384615	1.312821
00:00:00.549	1.297436	1.279121	1.304762
00:00:00.549	1.295971	1.161905	1.313553
00:00:00.549	1.295238	1.144322	1.309890
00:00:00.550	1.306227	1.252747	1.320147
00:00:00.550	1.301099	1.328938	1.322344
00:00:00.550	1.296703	1.294505	1.310623
00:00:00.551	1.299634	1.249084	1.302564
00:00:00.551	1.315018	1.275458	1.298168
00:00:00.551	1.322344	1.320147	1.300366
00:00:00.552	1.316484	1.337729	1.297436
00:00:00.552	1.290842	1.265201	1.276190
00:00:00.553	1.284249	1.262271	1.280586
00:00:00.553	1.304762	1.253480	1.290110
00:00:00.553	1.300366	1.233700	1.291575
00:00:00.554	1.317216	1.247619	1.303297
00:00:00.554	1.304029	1.165568	1.304029
00:00:00.554	1.309158	1.227839	1.302564
00:00:00.555	1.307692	1.334799	1.296703
00:00:00.555	1.306960	1.378022	1.304762
00:00:00.588	1.315751	1.403663	1.320879
00:00:00.588	1.306227	1.400000	1.317949
00:00:00.588	1.308425	1.390476	1.323077
00:00:00.588	1.321612	1.369963	1.320147
00:00:00.589	1.305495	1.331868	1.305495
00:00:00.589	1.315018	1.322344	1.308425
00:00:00.589	1.320879	1.314286	1.302564
00:00:00.590	1.323077	1.316484	1.290842
00:00:00.590	1.329670	1.343590	1.300366
00:00:00.590	1.334066	1.336264	1.299634
00:00:00.592	1.327473	1.326007	1.315751
00:00:00.592	1.331136	1.334799	1.287912
00:00:00.592	1.320147	1.323077	1.282051
00:00:00.594	1.319414	1.339194	1.300366
00:00:00.594	1.315018	1.383150	1.317216
00:00:00.594	1.297436	1.359707	1.317216
00:00:00.594	1.296703	1.343590	1.314286
00:00:00.594	1.280586	1.359707	1.308425
00:00:00.594	1.276190	1.417582	1.312088
00:00:00.594	1.282784	1.380220	1.326740
00:00:00.594	1.278388	1.265201	1.313553
00:00:00.595	1.296703	1.142125	1.276923
00:00:00.595	1.301832	1.126740	1.274725
00:00:00.596	1.289377	1.166300	1.280586
00:00:00.596	1.298901	1.227106	1.300366
00:00:00.596	1.304762	1.285714	1.310623
00:00:00.596	1.313553	1.305495	1.326740
00:00:00.597	1.332601	1.342857	1.309890
00:00:00.597	1.327473	1.333333	1.282784
00:00:00.598	1.331868	1.289377	1.306960
00:00:00.598	1.326740	1.276923	1.298901
00:00:00.598	1.327473	1.309890	1.317216
00:00:00.599	1.336264	1.331136	1.327473
00:00:00.599	1.331136	1.317949	1.320147
00:00:00.599	1.315751	1.310623	1.317949
00:00:00.600	1.316484	1.309890	1.312821
00:00:00.600	1.305495	1.290110	1.295238
00:00:00.600	1.308425	1.285714	1.290842
00:00:00.601	1.314286	1.298168	1.300366
00:00:00.601	1.316484	1.323077	1.294505
00:00:00.602	1.296703	1.338462	1.287179
00:00:00.602	1.285714	1.352381	1.286447
00:00:00.602	1.289377	1.350916	1.287179
00:00:00.603	1.286447	1.331136	1.287912
00:00:00.603	1.291575	1.308425	1.296703
00:00:00.603	1.303297	1.297436	1.305495
00:00:00.604	1.291575	1.282784	1.300366
00:00:00.604	1.306960	1.289377	1.312821
00:00:00.604	1.307692	1.290110	1.312088
00:00:00.605	1.296703	1.279853	1.316484
00:00:00.637	1.298901	1.284982	1.319414
00:00:00.637	1.296703	1.290110	1.307692
00:00:00.638	1.324542	1.334066	1.322344
00:00:00.638	1.317949	1.391941	1.305495
00:00:00.638	1.312088	1.398535	1.305495
00:00:00.639	1.323810	1.398535	1.309890
00:00:00.639	1.334066	1.339194	1.297436
00:00:00.639	1.329670	1.286447	1.306227
00:00:00.640	1.328938	1.257875	1.289377
00:00:00.640	1.309890	1.165568	1.270330
00:00:00.640	1.312088	1.131868	1.283516
00:00:00.641	1.320147	1.164103	1.293040
00:00:00.641	1.320147	1.242491	1.299634
00:00:00.642	1.322344	1.287912	1.315018
00:00:00.642	1.310623	1.300366	1.309890
00:00:00.642	1.296703	1.282051	1.305495
00:00:00.643	1.292308	1.304762	1.307692
00:00:00.643	1.287179	1.325275	1.307692
00:00:00.643	1.291575	1.313553	1.301099
00:00:00.644	1.310623	1.303297	1.305495
00:00:00.644	1.300366	1.296703	1.300366
00:00:00.644	1.290842	1.314286	1.276923
00:00:00.645	1.297436	1.397802	1.254945
00:00:00.645	1.299634	1.370696	1.246154
00:00:00.646	1.315018	1.320879	1.262271
