timestamp	ch1	ch2	ch3
00:00:00.000	1.304762	1.300366	1.306227
00:00:00.000	1.311355	1.272527	1.314286
00:00:00.000	1.295971	1.278388	1.306960
00:00:00.002	1.313553	1.312821	1.315751
00:00:00.002	1.304762	1.317949	1.306227
00:00:00.002	1.293773	1.351648	1.306227
00:00:00.002	1.288645	1.370696	1.304762
00:00:00.002	1.276190	1.371429	1.304029
00:00:00.003	1.284249	1.323077	1.304762
00:00:00.003	1.307692	1.265934	1.300366
00:00:00.003	1.319414	1.205128	1.296703
00:00:00.004	1.338462	1.221245	1.290110
00:00:00.004	1.330403	1.296703	1.295238
00:00:00.004	1.317949	1.324542	1.298901
00:00:00.005	1.323810	1.320879	1.300366
00:00:00.005	1.304762	1.328938	1.304029
00:00:00.005	1.290110	1.339927	1.298901
00:00:00.006	1.298168	1.324542	1.311355
00:00:00.006	1.291575	1.298168	1.319414
00:00:00.007	1.286447	1.285714	1.317216
00:00:00.007	1.280586	1.283516	1.306960
00:00:00.007	1.318681	1.311355	1.320879
00:00:00.008	1.336264	1.306227	1.313553
00:00:00.008	1.351648	1.309158	1.320147
00:00:00.008	1.331136	1.311355	1.305495
00:00:00.040	1.320147	1.327473	1.305495
00:00:00.041	1.316484	1.331136	1.298168
00:00:00.041	1.317949	1.333333	1.302564
00:00:00.042	1.290842	1.322344	1.285714
00:00:00.042	1.309890	1.362637	1.302564
00:00:00.042	1.324542	1.380952	1.300366
00:00:00.043	1.345055	1.362637	1.307692
00:00:00.043	1.346520	1.324542	1.312821
00:00:00.043	1.353114	1.275458	1.312821
00:00:00.044	1.327473	1.260073	1.309890
00:00:00.045	1.281319	1.248352	1.299634
00:00:00.045	1.253480	1.224908	1.308425
00:00:00.045	1.241026	1.192674	1.300366
00:00:00.045	1.293773	1.222711	1.305495
00:00:00.045	1.299634	1.238095	1.306227
00:00:00.046	1.269597	1.285714	1.301832
00:00:00.046	1.269597	1.320147	1.295238
00:00:00.047	1.285714	1.328205	1.291575
00:00:00.047	1.316484	1.347253	1.297436
00:00:00.047	1.336996	1.347253	1.300366
00:00:00.048	1.340659	1.335531	1.296703
00:00:00.048	1.347253	1.332601	1.303297
00:00:00.048	1.362637	1.329670	1.307692
00:00:00.049	1.317949	1.298168	1.294505
00:00:00.049	1.277656	1.288645	1.302564
00:00:00.049	1.241758	1.271062	1.296703
00:00:00.050	1.269597	1.277656	1.295238
00:00:00.050	1.322344	1.300366	1.306960
00:00:00.051	1.366300	1.308425	1.313553
00:00:00.051	1.376557	1.323810	1.323077
00:00:00.051	1.336264	1.312821	1.314286
00:00:00.052	1.298168	1.315018	1.309890
00:00:00.052	1.301099	1.361905	1.311355
00:00:00.052	1.287179	1.366300	1.306227
00:00:00.053	1.289377	1.352381	1.304762
00:00:00.053	1.300366	1.350183	1.297436
00:00:00.053	1.290842	1.328205	1.295971
00:00:00.055	1.296703	1.260806	1.288645
00:00:00.055	1.372894	1.220513	1.296703
00:00:00.055	1.378022	1.207326	1.300366
00:00:00.055	1.364835	1.239560	1.304029
00:00:00.055	1.345055	1.271795	1.316484
00:00:00.056	1.315018	1.309158	1.323077
00:00:00.056	1.277656	1.351648	1.309890
00:00:00.056	1.250549	1.342857	1.309890
00:00:00.057	1.258608	1.273993	1.306227
00:00:00.057	1.231502	1.228571	1.315751
00:00:00.057	1.252015	1.219780	1.310623
00:00:00.058	1.308425	1.279853	1.306960
00:00:00.059	1.283516	1.305495	1.294505
00:00:00.094	1.294505	1.328938	1.296703
00:00:00.094	1.317216	1.357509	1.304029
00:00:00.094	1.319414	1.342857	1.295238
00:00:00.094	1.332601	1.354579	1.292308
00:00:00.094	1.320879	1.350916	1.285714
00:00:00.094	1.336264	1.359707	1.305495
00:00:00.094	1.339194	1.345055	1.304029
00:00:00.094	1.334066	1.328205	1.290842
00:00:00.094	1.344322	1.328205	1.306960
00:00:00.094	1.333333	1.301099	1.304762
00:00:00.094	1.318681	1.278388	1.317949
00:00:00.094	1.326740	1.275458	1.321612
00:00:00.097	1.316484	1.267399	1.309890
00:00:00.097	1.262271	1.306227	1.309890
00:00:00.097	1.250549	1.336264	1.302564
00:00:00.097	1.313553	1.337729	1.300366
00:00:00.097	1.382418	1.337729	1.300366
00:00:00.097	1.386081	1.317949	1.287912
00:00:00.097	1.351648	1.299634	1.298901
00:00:00.097	1.293040	1.283516	1.300366
00:00:00.097	1.251282	1.288645	1.300366
00:00:00.098	1.267399	1.287912	1.295238
00:00:00.098	1.292308	1.273260	1.290110
00:00:00.098	1.307692	1.285714	1.294505
00:00:00.099	1.308425	1.288645	1.304029
00:00:00.099	1.312088	1.317216	1.306227
00:00:00.100	1.315751	1.336996	1.310623
00:00:00.100	1.308425	1.359707	1.312088
00:00:00.100	1.312088	1.362637	1.316484
00:00:00.101	1.307692	1.350183	1.310623
00:00:00.101	1.308425	1.347985	1.316484
00:00:00.101	1.290842	1.320879	1.307692
00:00:00.102	1.276923	1.289377	1.299634
00:00:00.102	1.314286	1.301832	1.306960
00:00:00.102	1.347253	1.311355	1.293773
00:00:00.103	1.372894	1.310623	1.299634
00:00:00.103	1.373626	1.302564	1.293773
00:00:00.103	1.329670	1.276190	1.291575
00:00:00.104	1.306960	1.280586	1.303297
00:00:00.104	1.265934	1.247619	1.298168
00:00:00.105	1.232234	1.214652	1.306960
00:00:00.105	1.271062	1.195604	1.300366
00:00:00.105	1.298168	1.250549	1.300366
00:00:00.106	1.326007	1.331868	1.304029
00:00:00.106	1.304762	1.365568	1.309890
00:00:00.106	1.306960	1.347253	1.316484
00:00:00.107	1.316484	1.305495	1.306227
00:00:00.107	1.311355	1.300366	1.298168
00:00:00.107	1.316484	1.293773	1.299634
00:00:00.108	1.306227	1.309890	1.302564
00:00:00.140	1.315018	1.307692	1.296703
00:00:00.140	1.310623	1.303297	1.287912
00:00:00.141	1.310623	1.328205	1.285714
00:00:00.141	1.303297	1.333333	1.304029
00:00:00.141	1.309890	1.320879	1.303297
00:00:00.142	1.313553	1.331868	1.306227
00:00:00.142	1.287912	1.339194	1.306227
00:00:00.142	1.278388	1.315018	1.292308
00:00:00.143	1.287912	1.308425	1.306960
00:00:00.143	1.323810	1.295971	1.306960
00:00:00.144	1.358974	1.271795	1.315751
00:00:00.144	1.416117	1.271795	1.317949
00:00:00.144	1.391941	1.273993	1.313553
00:00:00.145	1.343590	1.314286	1.312088
00:00:00.145	1.276923	1.328938	1.312088
00:00:00.145	1.227106	1.327473	1.304029
00:00:00.146	1.271795	1.315018	1.296703
00:00:00.146	1.285714	1.334066	1.308425
00:00:00.146	1.279121	1.336264	1.297436
00:00:00.147	1.260073	1.305495	1.290110
00:00:00.147	1.276923	1.297436	1.293040
00:00:00.147	1.314286	1.295971	1.298901
00:00:00.148	1.323810	1.312821	1.303297
00:00:00.149	1.328205	1.310623	1.308425
00:00:00.149	1.328938	1.298168	1.304762
00:00:00.149	1.323077	1.290842	1.308425
00:00:00.149	1.298168	1.273993	1.289377
00:00:00.150	1.316484	1.285714	1.307692
00:00:00.150	1.282784	1.278388	1.300366
00:00:00.150	1.258608	1.282051	1.315018
00:00:00.151	1.294505	1.284249	1.305495
00:00:00.151	1.354579	1.293040	1.307692
00:00:00.151	1.405128	1.308425	1.312821
00:00:00.153	1.417582	1.300366	1.295971
00:00:00.153	1.347253	1.323810	1.294505
00:00:00.153	1.293040	1.358974	1.298168
00:00:00.153	1.257143	1.367033	1.303297
00:00:00.153	1.271062	1.331868	1.299634
00:00:00.155	1.265201	1.285714	1.282051
00:00:00.155	1.262271	1.282784	1.295971
00:00:00.155	1.282051	1.302564	1.300366
00:00:00.155	1.298901	1.289377	1.298901
00:00:00.155	1.321612	1.293040	1.313553
00:00:00.155	1.343590	1.289377	1.306960
00:00:00.158	1.342125	1.315018	1.312088
00:00:00.158	1.301832	1.298168	1.312088
00:00:00.158	1.263736	1.271795	1.316484
00:00:00.158	1.245421	1.265201	1.323810
00:00:00.158	1.285714	1.295238	1.304762
00:00:00.158	1.310623	1.318681	1.298168
00:00:00.192	1.336996	1.420513	1.309890
00:00:00.192	1.366300	1.421245	1.302564
00:00:00.192	1.369231	1.367766	1.295238
00:00:00.192	1.384615	1.307692	1.304762
00:00:00.192	1.339194	1.253480	1.293040
00:00:00.192	1.313553	1.244689	1.287912
00:00:00.192	1.288645	1.216850	1.295238
00:00:00.192	1.275458	1.230769	1.290110
00:00:00.193	1.276923	1.301832	1.287912
00:00:00.193	1.279121	1.331136	1.291575
00:00:00.193	1.264469	1.358974	1.309890
00:00:00.194	1.287912	1.326740	1.308425
00:00:00.194	1.324542	1.279121	1.309158
00:00:00.194	1.325275	1.260806	1.315018
00:00:00.195	1.311355	1.238095	1.305495
00:00:00.195	1.315751	1.258608	1.317949
00:00:00.195	1.315018	1.298901	1.311355
00:00:00.196	1.313553	1.356777	1.301832
00:00:00.196	1.323810	1.320147	1.300366
00:00:00.196	1.323077	1.308425	1.300366
00:00:00.197	1.306227	1.295238	1.293040
00:00:00.197	1.315018	1.327473	1.295971
00:00:00.198	1.310623	1.312821	1.295238
00:00:00.198	1.323810	1.273993	1.297436
00:00:00.198	1.314286	1.271062	1.292308
00:00:00.199	1.305495	1.298901	1.301832
00:00:00.199	1.298901	1.298168	1.300366
00:00:00.199	1.303297	1.293773	1.304029
00:00:00.200	1.306227	1.305495	1.317216
00:00:00.200	1.313553	1.276923	1.318681
00:00:00.201	1.304029	1.257143	1.321612
00:00:00.201	1.306227	1.300366	1.306960
00:00:00.201	1.309158	1.341392	1.309890
00:00:00.201	1.309158	1.357509	1.304029
00:00:00.202	1.314286	1.336996	1.302564
00:00:00.202	1.316484	1.317949	1.304762
00:00:00.203	1.331136	1.323077	1.298901
00:00:00.203	1.293040	1.322344	1.292308
00:00:00.203	1.291575	1.313553	1.300366
00:00:00.204	1.301832	1.302564	1.298168
00:00:00.204	1.314286	1.306960	1.290842
00:00:00.204	1.353114	1.372894	1.302564
00:00:00.205	1.375824	1.372161	1.311355
00:00:00.205	1.386813	1.328205	1.309890
00:00:00.205	1.346520	1.297436	1.310623
00:00:00.206	1.269597	1.274725	1.310623
00:00:00.206	1.243223	1.280586	1.311355
00:00:00.206	1.289377	1.280586	1.306960
00:00:00.207	1.316484	1.303297	1.313553
00:00:00.207	1.300366	1.310623	1.315751
00:00:00.239	1.291575	1.320147	1.308425
00:00:00.240	1.301832	1.312821	1.300366
00:00:00.240	1.278388	1.290110	1.291575
00:00:00.240	1.286447	1.284982	1.294505
00:00:00.241	1.286447	1.282784	1.286447
00:00:00.241	1.295971	1.298901	1.290842
00:00:00.242	1.309158	1.314286	1.294505
00:00:00.242	1.339194	1.328938	1.312821
00:00:00.242	1.325275	1.317949	1.304029
00:00:00.243	1.315751	1.320147	1.298901
00:00:00.243	1.291575	1.316484	1.302564
00:00:00.243	1.261538	1.315751	1.308425
00:00:00.244	1.278388	1.322344	1.311355
00:00:00.244	1.294505	1.305495	1.313553
00:00:00.244	1.356777	1.280586	1.300366
00:00:00.246	1.399267	1.267399	1.300366
00:00:00.246	1.384615	1.280586	1.315018
00:00:00.246	1.273260	1.289377	1.302564
00:00:00.246	1.256410	1.288645	1.299634
00:00:00.246	1.290110	1.280586	1.295238
00:00:00.247	1.359707	1.290110	1.290842
00:00:00.247	1.400000	1.326007	1.293773
00:00:00.247	1.344322	1.345788	1.298168
00:00:00.248	1.230037	1.315018	1.295971
00:00:00.248	1.197802	1.299634	1.307692
00:00:00.248	1.243956	1.297436	1.306227
00:00:00.253	1.402930	1.323810	1.312821
00:00:00.253	1.441026	1.352381	1.306960
00:00:00.253	1.382418	1.430037	1.321612
00:00:00.253	1.275458	1.443223	1.312088
00:00:00.253	1.206593	1.405861	1.306227
00:00:00.253	1.208059	1.302564	1.312821
00:00:00.253	1.257143	1.245421	1.309158
00:00:00.253	1.306227	1.174359	1.309890
00:00:00.253	1.326007	1.145055	1.309890
00:00:00.253	1.316484	1.117949	1.290842
00:00:00.253	1.335531	1.182418	1.293040
00:00:00.257	1.332601	1.285714	1.284249
00:00:00.257	1.310623	1.375824	1.287179
00:00:00.257	1.323077	1.381685	1.293773
00:00:00.257	1.309158	1.303297	1.288645
00:00:00.257	1.328205	1.315751	1.315751
00:00:00.257	1.314286	1.300366	1.308425
00:00:00.257	1.310623	1.267399	1.307692
00:00:00.257	1.308425	1.260806	1.310623
00:00:00.257	1.263736	1.276923	1.307692
00:00:00.257	1.279853	1.312088	1.322344
00:00:00.257	1.284249	1.304029	1.306227
00:00:00.257	1.307692	1.328938	1.315018
00:00:00.257	1.339927	1.374359	1.317216
00:00:00.289	1.358974	1.450549	1.312821
00:00:00.289	1.392674	1.464469	1.320147
00:00:00.291	1.379487	1.404396	1.304762
00:00:00.291	1.306960	1.312821	1.289377
00:00:00.292	1.266667	1.265201	1.295971
00:00:00.292	1.325275	1.252015	1.294505
00:00:00.292	1.313553	1.197802	1.292308
00:00:00.292	1.290110	1.133333	1.289377
00:00:00.292	1.283516	1.171429	1.290110
00:00:00.292	1.292308	1.241758	1.304029
00:00:00.293	1.318681	1.340659	1.320147
00:00:00.293	1.316484	1.380952	1.304029
00:00:00.293	1.309158	1.452747	1.317216
00:00:00.294	1.300366	1.396337	1.319414
00:00:00.294	1.303297	1.302564	1.320879
00:00:00.294	1.308425	1.281319	1.312088
00:00:00.295	1.301099	1.299634	1.301832
00:00:00.295	1.305495	1.328205	1.300366
00:00:00.296	1.307692	1.320879	1.290842
00:00:00.296	1.306960	1.239560	1.280586
00:00:00.296	1.310623	1.255678	1.296703
00:00:00.297	1.316484	1.301099	1.295971
00:00:00.297	1.310623	1.315018	1.300366
00:00:00.297	1.306960	1.310623	1.300366
00:00:00.298	1.317949	1.301832	1.298168
00:00:00.298	1.327473	1.298168	1.304029
00:00:00.298	1.320879	1.320879	1.303297
00:00:00.299	1.292308	1.310623	1.297436
00:00:00.299	1.294505	1.320879	1.320147
00:00:00.300	1.291575	1.312088	1.316484
00:00:00.300	1.297436	1.314286	1.319414
00:00:00.300	1.315018	1.305495	1.317216
00:00:00.301	1.315751	1.313553	1.306960
00:00:00.301	1.304762	1.315751	1.305495
00:00:00.301	1.306960	1.309890	1.300366
00:00:00.302	1.326007	1.317949	1.295238
00:00:00.302	1.336996	1.332601	1.300366
00:00:00.302	1.318681	1.323810	1.296703
00:00:00.303	1.322344	1.334799	1.305495
00:00:00.303	1.269597	1.328938	1.298168
00:00:00.303	1.284249	1.356044	1.300366
00:00:00.304	1.306227	1.397070	1.305495
00:00:00.304	1.311355	1.369963	1.303297
00:00:00.305	1.312088	1.317216	1.315018
00:00:00.306	1.335531	1.267399	1.308425
00:00:00.306	1.323810	1.234432	1.299634
00:00:00.306	1.302564	1.243956	1.312088
00:00:00.306	1.301832	1.235165	1.313553
00:00:00.306	1.303297	1.212454	1.321612
00:00:00.307	1.295971	1.219048	1.297436
00:00:00.339	1.291575	1.255678	1.292308
00:00:00.339	1.302564	1.271795	1.282051
00:00:00.340	1.323810	1.284982	1.295238
00:00:00.340	1.309890	1.312088	1.303297
00:00:00.340	1.318681	1.336264	1.305495
00:00:00.341	1.319414	1.351648	1.301832
00:00:00.341	1.308425	1.340659	1.305495
00:00:00.341	1.291575	1.334799	1.300366
00:00:00.342	1.298168	1.318681	1.285714
00:00:00.342	1.305495	1.326740	1.309158
00:00:00.342	1.352381	1.327473	1.315751
00:00:00.343	1.372894	1.307692	1.314286
00:00:00.343	1.346520	1.304762	1.312088
00:00:00.344	1.323077	1.302564	1.315751
00:00:00.344	1.290110	1.313553	1.309158
00:00:00.344	1.263736	1.310623	1.307692
00:00:00.345	1.263736	1.308425	1.306227
00:00:00.345	1.306227	1.290842	1.300366
00:00:00.345	1.303297	1.298901	1.302564
00:00:00.347	1.303297	1.302564	1.309158
00:00:00.347	1.291575	1.296703	1.300366
00:00:00.347	1.302564	1.311355	1.290842
00:00:00.349	1.308425	1.331868	1.306227
00:00:00.349	1.300366	1.320879	1.301832
00:00:00.349	1.306227	1.322344	1.307692
00:00:00.349	1.315018	1.298901	1.290110
00:00:00.349	1.335531	1.304762	1.306960
00:00:00.349	1.356777	1.300366	1.305495
00:00:00.349	1.299634	1.296703	1.310623
00:00:00.349	1.273260	1.291575	1.306227
00:00:00.353	1.212454	1.303297	1.300366
00:00:00.353	1.326740	1.298901	1.320147
00:00:00.353	1.328938	1.292308	1.331868
00:00:00.353	1.291575	1.298168	1.310623
00:00:00.353	1.291575	1.309158	1.317949
00:00:00.353	1.328938	1.326740	1.295238
00:00:00.353	1.350183	1.327473	1.286447
00:00:00.353	1.311355	1.331868	1.310623
00:00:00.353	1.483516	1.315018	1.282784
00:00:00.353	1.463004	1.321612	1.312088
00:00:00.353	1.279853	1.312821	1.295238
00:00:00.354	1.221245	1.298168	1.298168
00:00:00.354	1.213919	1.287912	1.304762
00:00:00.354	1.268132	1.296703	1.295971
00:00:00.355	1.269597	1.302564	1.303297
00:00:00.355	1.253480	1.293040	1.282051
00:00:00.355	1.259341	1.292308	1.268864
00:00:00.356	1.241026	1.276923	1.282784
00:00:00.356	1.302564	1.289377	1.327473
00:00:00.356	1.416117	1.290842	1.326007
00:00:00.389	1.481319	1.294505	1.323077
00:00:00.390	1.373626	1.298901	1.312821
00:00:00.390	1.356777	1.299634	1.302564
00:00:00.390	1.373626	1.315018	1.309158
00:00:00.390	1.317216	1.313553	1.310623
00:00:00.390	1.282784	1.309890	1.309158
00:00:00.391	1.263736	1.333333	1.319414
00:00:00.391	1.235897	1.329670	1.313553
00:00:00.391	1.227839	1.307692	1.295238
00:00:00.392	1.273993	1.300366	1.286447
00:00:00.392	1.342857	1.292308	1.294505
00:00:00.393	1.432967	1.293040	1.283516
00:00:00.393	1.287179	1.302564	1.267399
00:00:00.393	1.249084	1.319414	1.320879
00:00:00.394	1.238828	1.309158	1.314286
00:00:00.394	1.309890	1.308425	1.298168
00:00:00.394	1.320879	1.311355	1.302564
00:00:00.395	1.287912	1.296703	1.300366
00:00:00.395	1.284249	1.298901	1.351648
00:00:00.395	1.279853	1.295238	1.342857
00:00:00.396	1.276190	1.288645	1.289377
00:00:00.396	1.289377	1.306960	1.288645
00:00:00.396	1.363370	1.320879	1.288645
00:00:00.397	1.329670	1.302564	1.292308
00:00:00.397	1.312088	1.304029	1.334799
00:00:00.398	1.388278	1.304762	1.314286
00:00:00.398	1.336996	1.300366	1.298168
00:00:00.398	1.329670	1.286447	1.300366
00:00:00.399	1.353846	1.250549	1.261538
00:00:00.399	1.303297	1.271062	1.296703
00:00:00.399	1.350183	1.307692	1.311355
00:00:00.400	1.316484	1.323810	1.339194
00:00:00.400	1.216850	1.328938	1.314286
00:00:00.400	1.225641	1.326007	1.302564
00:00:00.401	1.279121	1.304029	1.339194
00:00:00.401	1.302564	1.316484	1.283516
00:00:00.401	1.310623	1.298901	1.292308
00:00:00.402	1.235165	1.331868	1.268132
00:00:00.402	1.287179	1.337729	1.309890
00:00:00.403	1.319414	1.295971	1.402198
00:00:00.403	1.369963	1.302564	1.282051
00:00:00.403	1.309890	1.290110	1.157509
00:00:00.404	1.243223	1.272527	1.185348
00:00:00.404	1.295971	1.258608	1.258608
00:00:00.404	1.410989	1.268132	1.301832
00:00:00.405	1.306227	1.321612	1.349451
00:00:00.405	1.342857	1.328938	1.331136
00:00:00.405	1.393407	1.326740	1.316484
00:00:00.406	1.357509	1.297436	1.326007
00:00:00.406	1.308425	1.287912	1.336264
00:00:00.438	1.290110	1.304029	1.326740
00:00:00.439	1.265201	1.320147	1.321612
00:00:00.439	1.282784	1.315018	1.306960
00:00:00.439	1.326007	1.341392	1.304029
00:00:00.440	1.365568	1.368498	1.295971
00:00:00.440	1.313553	1.380952	1.293773
00:00:00.440	1.304762	1.341392	1.298168
00:00:00.441	1.301832	1.279121	1.296703
00:00:00.443	1.305495	1.228571	1.306227
00:00:00.443	1.295238	1.200000	1.298901
00:00:00.443	1.300366	1.241758	1.296703
00:00:00.443	1.284982	1.246886	1.319414
00:00:00.443	1.282784	1.276923	1.307692
00:00:00.444	1.283516	1.267399	1.317216
00:00:00.444	1.278388	1.290110	1.312821
00:00:00.445	1.273260	1.295971	1.307692
00:00:00.445	1.302564	1.333333	1.309890
00:00:00.445	1.353846	1.345055	1.306227
00:00:00.445	1.451282	1.383150	1.319414
00:00:00.445	1.329670	1.394872	1.327473
00:00:00.445	1.259341	1.367766	1.313553
00:00:00.449	1.295238	1.347253	1.312088
00:00:00.449	1.317216	1.365568	1.300366
00:00:00.449	1.327473	1.399267	1.303297
00:00:00.449	1.315018	1.344322	1.280586
00:00:00.449	1.299634	1.316484	1.279121
00:00:00.449	1.309890	1.341392	1.290842
00:00:00.449	1.301832	1.306227	1.287179
00:00:00.449	1.300366	1.282051	1.295971
00:00:00.449	1.292308	1.262271	1.299634
00:00:00.449	1.309890	1.258608	1.313553
00:00:00.449	1.311355	1.290842	1.316484
00:00:00.451	1.316484	1.284249	1.320147
00:00:00.451	1.310623	1.268132	1.317216
00:00:00.451	1.304762	1.254212	1.302564
00:00:00.451	1.294505	1.273260	1.303297
00:00:00.451	1.314286	1.290110	1.303297
00:00:00.452	1.316484	1.276923	1.290110
00:00:00.452	1.320879	1.268864	1.298168
00:00:00.452	1.311355	1.258608	1.291575
00:00:00.453	1.309158	1.276923	1.303297
00:00:00.453	1.315751	1.349451	1.307692
00:00:00.453	1.312821	1.304029	1.304029
00:00:00.454	1.310623	1.268132	1.306960
00:00:00.454	1.310623	1.288645	1.301832
00:00:00.454	1.309158	1.293773	1.297436
00:00:00.455	1.317949	1.284249	1.308425
00:00:00.455	1.301832	1.246154	1.299634
00:00:00.455	1.294505	1.207326	1.302564
00:00:00.456	1.306227	1.272527	1.300366
00:00:00.488	1.314286	1.311355	1.315751
00:00:00.488	1.315751	1.347985	1.313553
00:00:00.489	1.310623	1.344322	1.300366
00:00:00.489	1.315018	1.328938	1.304762
00:00:00.489	1.309158	1.347253	1.299634
00:00:00.490	1.314286	1.381685	1.301832
00:00:00.490	1.319414	1.369963	1.300366
00:00:00.491	1.308425	1.362637	1.291575
00:00:00.491	1.309158	1.369963	1.306960
00:00:00.491	1.312088	1.361905	1.308425
00:00:00.492	1.312088	1.315751	1.309158
00:00:00.492	1.316484	1.269597	1.309890
00:00:00.492	1.305495	1.260806	1.309158
00:00:00.493	1.311355	1.288645	1.314286
00:00:00.493	1.312821	1.254212	1.306227
00:00:00.494	1.300366	1.249817	1.305495
00:00:00.494	1.313553	1.280586	1.315751
00:00:00.494	1.309158	1.298168	1.309158
00:00:00.494	1.305495	1.307692	1.310623
00:00:00.495	1.307692	1.315751	1.299634
00:00:00.495	1.312088	1.329670	1.290110
00:00:00.496	1.320147	1.342857	1.300366
00:00:00.496	1.320147	1.365568	1.290842
00:00:00.496	1.315751	1.397802	1.300366
00:00:00.497	1.315751	1.366300	1.295238
00:00:00.497	1.304762	1.376557	1.293040
00:00:00.497	1.309158	1.346520	1.305495
00:00:00.498	1.313553	1.289377	1.298901
00:00:00.498	1.314286	1.282051	1.308425
00:00:00.498	1.306227	1.229304	1.311355
00:00:00.499	1.298901	1.203663	1.312821
00:00:00.499	1.303297	1.213187	1.317949
00:00:00.500	1.288645	1.228571	1.309158
00:00:00.500	1.312088	1.276190	1.316484
00:00:00.500	1.314286	1.287179	1.305495
00:00:00.501	1.309890	1.290842	1.307692
00:00:00.501	1.312088	1.287912	1.298168
00:00:00.501	1.302564	1.266667	1.298168
00:00:00.503	1.312088	1.299634	1.298168
00:00:00.503	1.303297	1.298901	1.283516
00:00:00.503	1.311355	1.315751	1.301832
00:00:00.503	1.309158	1.334066	1.296703
00:00:00.503	1.310623	1.361172	1.303297
00:00:00.503	1.314286	1.369231	1.311355
00:00:00.504	1.303297	1.340659	1.306227
00:00:00.504	1.309890	1.301832	1.298901
00:00:00.505	1.310623	1.279121	1.292308
00:00:00.505	1.302564	1.279853	1.306227
00:00:00.505	1.310623	1.320879	1.311355
00:00:00.506	1.298901	1.304029	1.303297
00:00:00.540	1.304762	1.290842	1.307692
00:00:00.540	1.291575	1.249817	1.292308
00:00:00.540	1.303297	1.287179	1.305495
00:00:00.540	1.310623	1.309890	1.304029
00:00:00.540	1.306227	1.294505	1.283516
00:00:00.541	1.314286	1.313553	1.293040
00:00:00.541	1.318681	1.338462	1.297436
00:00:00.541	1.309890	1.331868	1.293040
00:00:00.541	1.310623	1.326740	1.296703
00:00:00.541	1.305495	1.298901	1.295238
00:00:00.541	1.315018	1.300366	1.307692
00:00:00.544	1.314286	1.293040	1.315018
00:00:00.544	1.312088	1.304029	1.321612
00:00:00.544	1.307692	1.300366	1.320879
00:00:00.544	1.304029	1.300366	1.312821
00:00:00.544	1.296703	1.297436	1.310623
00:00:00.544	1.310623	1.323077	1.310623
00:00:00.544	1.314286	1.350183	1.317216
00:00:00.544	1.317949	1.334799	1.309158
00:00:00.546	1.304762	1.306960	1.305495
00:00:00.546	1.319414	1.301832	1.306960
00:00:00.546	1.316484	1.293040	1.293040
00:00:00.547	1.301099	1.293773	1.295238
00:00:00.547	1.313553	1.293040	1.298901
00:00:00.547	1.303297	1.282051	1.291575
00:00:00.547	1.313553	1.297436	1.306227
00:00:00.547	1.314286	1.305495	1.300366
00:00:00.547	1.309158	1.319414	1.307692
00:00:00.548	1.309158	1.308425	1.304762
00:00:00.548	1.306960	1.306227	1.300366
00:00:00.549	1.315018	1.323810	1.317216
00:00:00.549	1.316484	1.305495	1.317216
00:00:00.549	1.311355	1.294505	1.309890
00:00:00.550	1.309158	1.302564	1.309158
00:00:00.550	1.307692	1.294505	1.299634
00:00:00.550	1.311355	1.317949	1.312821
00:00:00.551	1.305495	1.312821	1.300366
00:00:00.551	1.306960	1.322344	1.297436
00:00:00.551	1.305495	1.356777	1.297436
00:00:00.552	1.307692	1.386813	1.299634
00:00:00.552	1.310623	1.358242	1.300366
00:00:00.552	1.315751	1.296703	1.299634
00:00:00.553	1.311355	1.270330	1.292308
00:00:00.553	1.304762	1.257143	1.298901
00:00:00.554	1.313553	1.279853	1.300366
00:00:00.554	1.308425	1.254212	1.294505
00:00:00.554	1.312088	1.259341	1.315751
00:00:00.555	1.311355	1.318681	1.313553
00:00:00.555	1.299634	1.332601	1.309890
00:00:00.555	1.321612	1.362637	1.320147
00:00:00.587	1.324542	1.358974	1.308425
00:00:00.588	1.330403	1.332601	1.313553
00:00:00.588	1.304029	1.309890	1.302564
00:00:00.589	1.305495	1.268132	1.296703
00:00:00.589	1.297436	1.224176	1.304029
00:00:00.589	1.309158	1.192674	1.296703
00:00:00.590	1.291575	1.200000	1.282051
00:00:00.590	1.292308	1.227839	1.286447
00:00:00.590	1.307692	1.239560	1.282784
00:00:00.591	1.309158	1.259341	1.286447
00:00:00.591	1.316484	1.323810	1.299634
00:00:00.591	1.312821	1.336264	1.303297
00:00:00.592	1.309890	1.348718	1.312088
00:00:00.592	1.296703	1.353846	1.317216
00:00:00.592	1.296703	1.341392	1.323810
00:00:00.593	1.306960	1.334799	1.326007
00:00:00.593	1.312088	1.399267	1.326007
00:00:00.594	1.310623	1.419048	1.315018
00:00:00.594	1.304762	1.360440	1.306227
00:00:00.594	1.314286	1.304029	1.311355
00:00:00.595	1.315751	1.284982	1.300366
00:00:00.595	1.317949	1.266667	1.296703
00:00:00.595	1.317949	1.246154	1.290110
00:00:00.596	1.320879	1.218315	1.290110
00:00:00.596	1.308425	1.228571	1.265201
00:00:00.596	1.315018	1.296703	1.295238
00:00:00.597	1.304762	1.313553	1.298168
00:00:00.597	1.309158	1.320147	1.301832
00:00:00.598	1.312821	1.318681	1.309890
00:00:00.598	1.307692	1.295971	1.305495
00:00:00.598	1.309158	1.317949	1.319414
00:00:00.599	1.309158	1.369963	1.314286
00:00:00.599	1.315751	1.418315	1.317949
00:00:00.599	1.316484	1.397070	1.317216
00:00:00.601	1.314286	1.320147	1.312821
00:00:00.601	1.304762	1.257875	1.307692
00:00:00.601	1.306960	1.225641	1.306960
00:00:00.601	1.314286	1.258608	1.300366
00:00:00.601	1.317949	1.245421	1.295238
00:00:00.601	1.310623	1.234432	1.284982
00:00:00.602	1.304762	1.296703	1.284982
00:00:00.602	1.308425	1.474725	1.293040
00:00:00.606	1.312821	1.457875	1.304762
00:00:00.606	1.304762	1.350183	1.301832
00:00:00.606	1.318681	1.276190	1.318681
00:00:00.606	1.309158	1.244689	1.312088
00:00:00.606	1.320147	1.285714	1.311355
00:00:00.606	1.316484	1.270330	1.302564
00:00:00.606	1.310623	1.245421	1.309890
00:00:00.606	1.295971	1.249817	1.296703
00:00:00.637	1.298168	1.319414	1.276923
00:00:00.640	1.304762	1.378022	1.297436
00:00:00.640	1.307692	1.318681	1.295238
00:00:00.640	1.316484	1.260806	1.295238
00:00:00.640	1.318681	1.265201	1.312821
00:00:00.640	1.320147	1.323810	1.309890
00:00:00.640	1.309890	1.387546	1.300366
00:00:00.640	1.317949	1.358974	1.309890
00:00:00.640	1.310623	1.242491	1.300366
00:00:00.640	1.303297	1.200733	1.287179
00:00:00.642	1.309890	1.252747	1.304029
00:00:00.642	1.311355	1.301832	1.300366
00:00:00.642	1.308425	1.367766	1.309158
00:00:00.643	1.323810	1.413187	1.315018
00:00:00.643	1.306960	1.386813	1.312821
00:00:00.643	1.302564	1.390476	1.323077
00:00:00.643	1.318681	1.373626	1.323077
00:00:00.643	1.312821	1.431502	1.323077
00:00:00.644	1.307692	1.333333	1.314286
00:00:00.644	1.317216	1.196337	1.309890
00:00:00.644	1.309158	1.167766	1.289377
00:00:00.645	1.316484	1.153846	1.292308
00:00:00.645	1.317216	1.243956	1.294505
00:00:00.645	1.308425	1.306227	1.280586
00:00:00.646	1.301832	1.191941	1.284982
