timestamp	ch1	ch2	ch3
00:00:00.000	1.298168	1.262271	1.290842
00:00:00.001	1.306960	1.282051	1.297436
00:00:00.001	1.297436	1.300366	1.297436
00:00:00.001	1.301832	1.326740	1.300366
00:00:00.001	1.306227	1.321612	1.297436
00:00:00.002	1.306227	1.331868	1.306227
00:00:00.034	1.303297	1.323077	1.312821
00:00:00.034	1.307692	1.271795	1.304762
00:00:00.035	1.291575	1.270330	1.315751
00:00:00.035	1.293773	1.287912	1.308425
00:00:00.035	1.301099	1.263736	1.306227
00:00:00.036	1.304029	1.306960	1.304762
00:00:00.037	1.328205	1.322344	1.304762
00:00:00.037	1.313553	1.315751	1.294505
00:00:00.037	1.306227	1.307692	1.307692
00:00:00.037	1.298168	1.284982	1.288645
00:00:00.037	1.320147	1.301832	1.302564
00:00:00.038	1.314286	1.283516	1.290110
00:00:00.038	1.324542	1.285714	1.294505
00:00:00.039	1.315751	1.316484	1.293773
00:00:00.039	1.316484	1.329670	1.300366
00:00:00.040	1.311355	1.317216	1.292308
00:00:00.040	1.316484	1.333333	1.311355
00:00:00.040	1.303297	1.313553	1.308425
00:00:00.041	1.300366	1.314286	1.312088
00:00:00.041	1.291575	1.290110	1.311355
00:00:00.041	1.276923	1.284982	1.309158
00:00:00.042	1.279121	1.301099	1.314286
00:00:00.042	1.284982	1.315018	1.311355
00:00:00.042	1.313553	1.323810	1.300366
00:00:00.042	1.347253	1.344322	1.303297
00:00:00.043	1.336996	1.333333	1.304029
00:00:00.043	1.328205	1.323810	1.297436
00:00:00.044	1.311355	1.310623	1.292308
00:00:00.044	1.308425	1.286447	1.289377
00:00:00.045	1.303297	1.278388	1.295971
00:00:00.045	1.306227	1.271062	1.300366
00:00:00.045	1.309890	1.260806	1.302564
00:00:00.046	1.298168	1.247619	1.304029
00:00:00.046	1.297436	1.273260	1.300366
00:00:00.046	1.314286	1.309158	1.313553
00:00:00.047	1.298901	1.293040	1.308425
00:00:00.047	1.306960	1.302564	1.316484
00:00:00.048	1.312088	1.314286	1.315018
00:00:00.048	1.310623	1.320147	1.312088
00:00:00.048	1.315751	1.318681	1.309890
00:00:00.048	1.314286	1.312088	1.300366
00:00:00.049	1.311355	1.319414	1.297436
00:00:00.049	1.300366	1.345055	1.292308
00:00:00.050	1.312821	1.375092	1.300366
00:00:00.050	1.309890	1.354579	1.295238
00:00:00.050	1.320147	1.299634	1.298168
00:00:00.053	1.307692	1.264469	1.300366
00:00:00.053	1.317949	1.284249	1.298168
00:00:00.053	1.330403	1.311355	1.309158
00:00:00.053	1.327473	1.295971	1.309890
00:00:00.083	1.305495	1.275458	1.309890
00:00:00.085	1.314286	1.287179	1.307692
00:00:00.085	1.311355	1.294505	1.298901
00:00:00.085	1.304762	1.317949	1.321612
00:00:00.087	1.282784	1.334066	1.309890
00:00:00.087	1.276190	1.375092	1.313553
00:00:00.087	1.291575	1.350916	1.316484
00:00:00.087	1.271062	1.267399	1.288645
00:00:00.087	1.251282	1.275458	1.303297
00:00:00.087	1.265934	1.278388	1.297436
00:00:00.088	1.293040	1.219780	1.287179
00:00:00.088	1.330403	1.197070	1.282784
00:00:00.088	1.353114	1.218315	1.274725
00:00:00.089	1.383883	1.294505	1.300366
00:00:00.089	1.356777	1.390476	1.305495
00:00:00.092	1.314286	1.400000	1.310623
00:00:00.092	1.292308	1.367766	1.306960
00:00:00.092	1.281319	1.318681	1.300366
00:00:00.092	1.312821	1.302564	1.317216
00:00:00.092	1.317216	1.281319	1.314286
00:00:00.092	1.308425	1.250549	1.312821
00:00:00.092	1.306227	1.243956	1.316484
00:00:00.092	1.300366	1.270330	1.305495
00:00:00.092	1.317216	1.300366	1.306227
00:00:00.092	1.316484	1.330403	1.307692
00:00:00.093	1.323810	1.397802	1.298168
00:00:00.094	1.329670	1.386813	1.295971
00:00:00.094	1.323810	1.358974	1.292308
00:00:00.094	1.323077	1.317216	1.292308
00:00:00.094	1.282784	1.315018	1.298901
00:00:00.095	1.276923	1.306960	1.309158
00:00:00.095	1.290842	1.275458	1.312088
00:00:00.096	1.305495	1.210989	1.304762
00:00:00.096	1.312088	1.231502	1.305495
00:00:00.096	1.336264	1.277656	1.314286
00:00:00.097	1.347253	1.286447	1.312821
00:00:00.097	1.320147	1.276190	1.306960
00:00:00.097	1.305495	1.309890	1.317216
00:00:00.097	1.284982	1.317949	1.317949
00:00:00.098	1.263736	1.309158	1.312821
00:00:00.098	1.309158	1.313553	1.312821
00:00:00.099	1.342125	1.318681	1.299634
00:00:00.099	1.335531	1.334799	1.303297
00:00:00.099	1.306960	1.334799	1.290110
00:00:00.100	1.293040	1.377289	1.296703
00:00:00.100	1.304762	1.402198	1.295238
00:00:00.100	1.294505	1.359707	1.285714
00:00:00.101	1.315018	1.315018	1.304029
00:00:00.101	1.295238	1.260806	1.299634
00:00:00.101	1.300366	1.241758	1.298168
00:00:00.134	1.300366	1.235165	1.310623
00:00:00.134	1.285714	1.235165	1.304029
00:00:00.135	1.331136	1.256410	1.320147
00:00:00.136	1.317949	1.272527	1.303297
00:00:00.136	1.298901	1.300366	1.309158
00:00:00.136	1.303297	1.305495	1.297436
00:00:00.136	1.306227	1.314286	1.303297
00:00:00.136	1.331868	1.325275	1.306227
00:00:00.137	1.328938	1.315751	1.297436
00:00:00.137	1.323810	1.328205	1.299634
00:00:00.137	1.334799	1.346520	1.300366
00:00:00.138	1.325275	1.340659	1.303297
00:00:00.138	1.313553	1.343590	1.308425
00:00:00.138	1.288645	1.336996	1.293773
00:00:00.138	1.282784	1.324542	1.296703
00:00:00.139	1.284982	1.303297	1.302564
00:00:00.139	1.274725	1.256410	1.305495
00:00:00.140	1.295238	1.267399	1.308425
00:00:00.140	1.314286	1.286447	1.314286
00:00:00.140	1.300366	1.273993	1.300366
00:00:00.140	1.304762	1.305495	1.317216
00:00:00.141	1.318681	1.334066	1.317949
00:00:00.141	1.308425	1.367766	1.312088
00:00:00.142	1.303297	1.354579	1.297436
00:00:00.142	1.318681	1.307692	1.309890
00:00:00.143	1.323077	1.270330	1.304029
00:00:00.143	1.322344	1.253480	1.297436
00:00:00.143	1.333333	1.255678	1.296703
00:00:00.143	1.329670	1.249817	1.289377
00:00:00.144	1.310623	1.263736	1.284982
00:00:00.145	1.300366	1.294505	1.291575
00:00:00.145	1.300366	1.304762	1.299634
00:00:00.145	1.309158	1.317949	1.312821
00:00:00.145	1.309890	1.311355	1.300366
00:00:00.146	1.309158	1.320147	1.314286
00:00:00.146	1.292308	1.319414	1.308425
00:00:00.147	1.298901	1.329670	1.312088
00:00:00.147	1.298901	1.331868	1.315018
00:00:00.147	1.298901	1.323077	1.296703
00:00:00.148	1.308425	1.320147	1.305495
00:00:00.148	1.311355	1.312088	1.306960
00:00:00.149	1.312088	1.317216	1.304029
00:00:00.149	1.323077	1.314286	1.308425
00:00:00.149	1.306960	1.284982	1.289377
00:00:00.150	1.331868	1.314286	1.298168
00:00:00.150	1.323810	1.315751	1.292308
00:00:00.150	1.306227	1.312088	1.282051
00:00:00.152	1.322344	1.306227	1.295238
00:00:00.152	1.265934	1.253480	1.290842
00:00:00.152	1.287912	1.270330	1.304762
00:00:00.185	1.298168	1.295238	1.298901
00:00:00.185	1.319414	1.330403	1.300366
00:00:00.185	1.340659	1.342125	1.312821
00:00:00.185	1.334066	1.315751	1.306227
00:00:00.185	1.307692	1.248352	1.306960
00:00:00.185	1.287179	1.257143	1.311355
00:00:00.189	1.287912	1.274725	1.312088
00:00:00.189	1.298168	1.245421	1.296703
00:00:00.189	1.303297	1.232967	1.300366
00:00:00.189	1.306227	1.284982	1.303297
00:00:00.189	1.306227	1.337729	1.306227
00:00:00.189	1.309158	1.347253	1.296703
00:00:00.189	1.302564	1.337729	1.295238
00:00:00.189	1.304029	1.342125	1.295971
00:00:00.189	1.303297	1.347253	1.304762
00:00:00.189	1.309158	1.333333	1.300366
00:00:00.189	1.311355	1.323077	1.302564
00:00:00.189	1.304762	1.310623	1.306960
00:00:00.190	1.309158	1.311355	1.312821
00:00:00.190	1.297436	1.293040	1.308425
00:00:00.191	1.315018	1.365568	1.319414
00:00:00.191	1.310623	1.389011	1.315018
00:00:00.192	1.312088	1.361172	1.315751
00:00:00.192	1.314286	1.313553	1.308425
00:00:00.192	1.314286	1.244689	1.298168
00:00:00.193	1.320147	1.219048	1.304762
00:00:00.193	1.323810	1.224176	1.300366
00:00:00.193	1.312088	1.227106	1.293773
00:00:00.194	1.320147	1.224176	1.290110
00:00:00.194	1.309890	1.264469	1.284982
00:00:00.194	1.305495	1.304029	1.284249
00:00:00.195	1.293040	1.317949	1.292308
00:00:00.195	1.290842	1.342857	1.298168
00:00:00.195	1.295971	1.352381	1.312821
00:00:00.196	1.300366	1.334066	1.308425
00:00:00.196	1.316484	1.321612	1.312821
00:00:00.196	1.332601	1.319414	1.320147
00:00:00.196	1.332601	1.282051	1.307692
00:00:00.197	1.340659	1.294505	1.315751
00:00:00.198	1.337729	1.318681	1.307692
00:00:00.198	1.320147	1.328205	1.306960
00:00:00.198	1.304762	1.327473	1.308425
00:00:00.199	1.297436	1.334066	1.304029
00:00:00.199	1.295238	1.330403	1.302564
00:00:00.199	1.279121	1.293773	1.298168
00:00:00.199	1.268864	1.280586	1.289377
00:00:00.200	1.273993	1.278388	1.290110
00:00:00.200	1.284982	1.304762	1.295971
00:00:00.201	1.292308	1.304762	1.297436
00:00:00.201	1.311355	1.309158	1.315751
00:00:00.233	1.322344	1.302564	1.308425
00:00:00.234	1.318681	1.315018	1.315018
00:00:00.234	1.321612	1.304029	1.310623
00:00:00.234	1.317216	1.290110	1.309158
00:00:00.235	1.309890	1.290110	1.306960
00:00:00.235	1.314286	1.288645	1.306960
00:00:00.236	1.308425	1.286447	1.300366
00:00:00.236	1.321612	1.308425	1.315751
00:00:00.236	1.304762	1.304029	1.303297
00:00:00.236	1.317216	1.324542	1.305495
00:00:00.236	1.312088	1.317949	1.297436
00:00:00.237	1.329670	1.294505	1.285714
00:00:00.237	1.323077	1.298901	1.282051
00:00:00.238	1.317949	1.316484	1.300366
00:00:00.238	1.304029	1.306227	1.294505
00:00:00.239	1.304762	1.305495	1.304762
00:00:00.239	1.304029	1.301832	1.309158
00:00:00.240	1.304762	1.298901	1.307692
00:00:00.240	1.305495	1.303297	1.312821
00:00:00.240	1.302564	1.304029	1.315018
00:00:00.240	1.305495	1.303297	1.314286
00:00:00.240	1.307692	1.304029	1.310623
00:00:00.241	1.304762	1.304029	1.306227
00:00:00.241	1.295238	1.301832	1.302564
00:00:00.241	1.298901	1.302564	1.311355
00:00:00.242	1.305495	1.301832	1.298901
00:00:00.244	1.292308	1.293773	1.281319
00:00:00.244	1.313553	1.314286	1.292308
00:00:00.244	1.315751	1.310623	1.296703
00:00:00.244	1.331136	1.321612	1.300366
00:00:00.244	1.329670	1.321612	1.305495
00:00:00.245	1.339194	1.314286	1.293040
00:00:00.245	1.335531	1.309890	1.300366
00:00:00.245	1.297436	1.298168	1.304029
00:00:00.246	1.298168	1.306960	1.305495
00:00:00.246	1.300366	1.298168	1.299634
00:00:00.246	1.295971	1.289377	1.304029
00:00:00.247	1.310623	1.299634	1.312088
00:00:00.247	1.304762	1.298168	1.328938
00:00:00.247	1.309158	1.298901	1.323810
00:00:00.251	1.317216	1.300366	1.315751
00:00:00.251	1.312088	1.295971	1.303297
00:00:00.251	1.309158	1.300366	1.295971
00:00:00.251	1.303297	1.316484	1.313553
00:00:00.251	1.324542	1.311355	1.318681
00:00:00.251	1.332601	1.315018	1.288645
00:00:00.251	1.329670	1.311355	1.268864
00:00:00.251	1.317949	1.320879	1.276190
00:00:00.251	1.249817	1.297436	1.286447
00:00:00.251	1.292308	1.303297	1.300366
00:00:00.283	1.296703	1.290842	1.292308
00:00:00.283	1.278388	1.295238	1.302564
00:00:00.284	1.289377	1.288645	1.311355
00:00:00.284	1.309158	1.292308	1.308425
00:00:00.285	1.316484	1.310623	1.327473
00:00:00.285	1.290110	1.299634	1.309890
00:00:00.285	1.302564	1.315751	1.320147
00:00:00.286	1.302564	1.316484	1.307692
00:00:00.286	1.299634	1.309890	1.305495
00:00:00.286	1.320879	1.309890	1.304029
00:00:00.286	1.316484	1.300366	1.300366
00:00:00.287	1.321612	1.295971	1.295238
00:00:00.287	1.331136	1.311355	1.300366
00:00:00.288	1.342857	1.315751	1.294505
00:00:00.288	1.340659	1.308425	1.299634
00:00:00.288	1.312821	1.297436	1.290110
00:00:00.289	1.306227	1.307692	1.303297
00:00:00.289	1.300366	1.303297	1.308425
00:00:00.289	1.296703	1.293040	1.298901
00:00:00.290	1.305495	1.314286	1.312821
00:00:00.290	1.294505	1.306227	1.304029
00:00:00.290	1.306227	1.310623	1.314286
00:00:00.291	1.307692	1.299634	1.314286
00:00:00.291	1.306960	1.299634	1.303297
00:00:00.292	1.309890	1.303297	1.304029
00:00:00.292	1.304762	1.301832	1.292308
00:00:00.292	1.309158	1.312088	1.303297
00:00:00.292	1.312088	1.297436	1.287912
00:00:00.293	1.317216	1.309890	1.300366
00:00:00.294	1.312088	1.303297	1.290842
00:00:00.294	1.311355	1.312088	1.295238
00:00:00.294	1.312088	1.312821	1.291575
00:00:00.294	1.295238	1.289377	1.295238
00:00:00.294	1.313553	1.290842	1.302564
00:00:00.295	1.309158	1.288645	1.302564
00:00:00.296	1.307692	1.288645	1.312088
00:00:00.296	1.315751	1.287179	1.312821
00:00:00.296	1.304029	1.279853	1.314286
00:00:00.297	1.317216	1.297436	1.320147
00:00:00.297	1.301099	1.300366	1.300366
00:00:00.297	1.309890	1.306227	1.320147
00:00:00.297	1.315018	1.310623	1.307692
00:00:00.298	1.294505	1.301832	1.294505
00:00:00.298	1.303297	1.312088	1.304029
00:00:00.299	1.305495	1.328205	1.293773
00:00:00.299	1.317216	1.335531	1.304762
00:00:00.300	1.318681	1.317949	1.300366
00:00:00.300	1.309890	1.293773	1.282784
00:00:00.300	1.309890	1.303297	1.304029
00:00:00.300	1.314286	1.301832	1.300366
00:00:00.333	1.310623	1.300366	1.309890
00:00:00.333	1.311355	1.302564	1.309890
00:00:00.334	1.314286	1.296703	1.308425
00:00:00.334	1.307692	1.300366	1.311355
00:00:00.334	1.306227	1.300366	1.314286
00:00:00.335	1.307692	1.310623	1.317216
00:00:00.335	1.313553	1.312821	1.317216
00:00:00.335	1.308425	1.299634	1.308425
00:00:00.336	1.304029	1.294505	1.306227
00:00:00.336	1.310623	1.295238	1.303297
00:00:00.336	1.316484	1.293040	1.303297
00:00:00.336	1.321612	1.295971	1.296703
00:00:00.337	1.315018	1.312821	1.293773
00:00:00.337	1.308425	1.334799	1.296703
00:00:00.338	1.318681	1.348718	1.302564
00:00:00.338	1.311355	1.353114	1.296703
00:00:00.338	1.320879	1.341392	1.305495
00:00:00.339	1.312088	1.309158	1.305495
00:00:00.339	1.302564	1.301099	1.317216
00:00:00.340	1.307692	1.295238	1.314286
00:00:00.340	1.309158	1.289377	1.312821
00:00:00.340	1.302564	1.282784	1.313553
00:00:00.341	1.295238	1.284982	1.314286
00:00:00.341	1.306960	1.295971	1.298168
00:00:00.341	1.309890	1.307692	1.308425
00:00:00.344	1.312088	1.295238	1.305495
00:00:00.344	1.303297	1.289377	1.300366
00:00:00.344	1.314286	1.309890	1.294505
00:00:00.344	1.306960	1.328938	1.288645
00:00:00.344	1.317949	1.342857	1.295971
00:00:00.344	1.309890	1.321612	1.292308
00:00:00.344	1.315751	1.312821	1.294505
00:00:00.344	1.306960	1.298168	1.292308
00:00:00.344	1.300366	1.252015	1.298168
00:00:00.345	1.297436	1.264469	1.312821
00:00:00.345	1.298901	1.283516	1.312821
00:00:00.349	1.295971	1.274725	1.312088
00:00:00.349	1.314286	1.296703	1.316484
00:00:00.349	1.313553	1.316484	1.317949
00:00:00.349	1.302564	1.331868	1.306960
00:00:00.349	1.309158	1.327473	1.308425
00:00:00.349	1.306227	1.296703	1.300366
00:00:00.349	1.305495	1.274725	1.296703
00:00:00.349	1.314286	1.272527	1.292308
00:00:00.349	1.329670	1.305495	1.312821
00:00:00.349	1.304029	1.288645	1.300366
00:00:00.349	1.304762	1.271795	1.295971
00:00:00.349	1.326740	1.291575	1.295238
00:00:00.350	1.312088	1.297436	1.287912
00:00:00.350	1.279121	1.337729	1.305495
00:00:00.382	1.283516	1.361905	1.309158
00:00:00.383	1.305495	1.372161	1.307692
00:00:00.383	1.304762	1.369963	1.314286
00:00:00.383	1.293773	1.340659	1.309890
00:00:00.384	1.315751	1.334066	1.317216
00:00:00.384	1.309158	1.305495	1.318681
00:00:00.384	1.303297	1.267399	1.314286
00:00:00.385	1.310623	1.298168	1.306960
00:00:00.385	1.300366	1.299634	1.294505
00:00:00.385	1.316484	1.301832	1.303297
00:00:00.386	1.317949	1.280586	1.297436
00:00:00.387	1.306227	1.276923	1.303297
00:00:00.387	1.307692	1.300366	1.296703
00:00:00.387	1.291575	1.279853	1.285714
00:00:00.387	1.310623	1.257143	1.300366
00:00:00.388	1.303297	1.252015	1.300366
00:00:00.388	1.301832	1.296703	1.304762
00:00:00.389	1.326740	1.336264	1.309158
00:00:00.389	1.308425	1.293773	1.298168
00:00:00.389	1.337729	1.284982	1.313553
00:00:00.389	1.337729	1.286447	1.316484
00:00:00.390	1.302564	1.290110	1.306960
00:00:00.390	1.295971	1.329670	1.300366
00:00:00.391	1.294505	1.347985	1.300366
00:00:00.391	1.306227	1.369963	1.307692
00:00:00.391	1.308425	1.339194	1.292308
00:00:00.391	1.310623	1.304029	1.307692
00:00:00.392	1.301832	1.283516	1.293773
00:00:00.392	1.306960	1.309890	1.304029
00:00:00.393	1.309158	1.318681	1.291575
00:00:00.393	1.303297	1.319414	1.289377
00:00:00.393	1.316484	1.304029	1.295971
00:00:00.393	1.309890	1.284982	1.299634
00:00:00.394	1.309890	1.276923	1.308425
00:00:00.395	1.309158	1.270330	1.310623
00:00:00.395	1.310623	1.268864	1.304029
00:00:00.395	1.310623	1.300366	1.318681
00:00:00.397	1.309158	1.341392	1.314286
00:00:00.397	1.289377	1.359707	1.308425
00:00:00.397	1.309890	1.362637	1.315018
00:00:00.397	1.300366	1.342125	1.310623
00:00:00.397	1.296703	1.312821	1.311355
00:00:00.397	1.301099	1.282784	1.299634
00:00:00.397	1.310623	1.276923	1.300366
