timestamp	ch1	ch2	ch3
00:00:00.000	1.312088	1.246886	1.327473
00:00:00.001	1.311355	1.242491	1.315751
00:00:00.001	1.332601	1.279121	1.323077
00:00:00.002	1.293040	1.324542	1.321612
00:00:00.002	1.291575	1.352381	1.266667
00:00:00.002	1.298168	1.337729	1.266667
00:00:00.003	1.299634	1.332601	1.297436
00:00:00.003	1.335531	1.320147	1.304762
00:00:00.003	1.313553	1.314286	1.271795
00:00:00.004	1.299634	1.357509	1.195604
00:00:00.004	1.303297	1.317949	1.242491
00:00:00.004	1.308425	1.284982	1.300366
00:00:00.005	1.309158	1.294505	1.333333
00:00:00.005	1.334066	1.298168	1.361905
00:00:00.005	1.336996	1.251282	1.321612
00:00:00.006	1.331868	1.242491	1.309890
00:00:00.006	1.322344	1.257143	1.309158
00:00:00.007	1.315018	1.319414	1.305495
00:00:00.007	1.302564	1.399267	1.304029
00:00:00.007	1.306960	1.379487	1.320147
00:00:00.008	1.304029	1.294505	1.317216
00:00:00.008	1.311355	1.314286	1.320147
00:00:00.008	1.295238	1.375824	1.318681
00:00:00.009	1.293773	1.376557	1.315751
00:00:00.009	1.314286	1.377289	1.328938
00:00:00.009	1.328205	1.424176	1.320879
00:00:00.010	1.347985	1.361905	1.346520
00:00:00.010	1.386081	1.255678	1.289377
00:00:00.010	1.389011	1.197802	1.265934
00:00:00.012	1.363370	1.164835	1.289377
00:00:00.012	1.333333	1.179487	1.298901
00:00:00.013	1.309158	1.201465	1.295238
00:00:00.013	1.228571	1.276923	1.284982
00:00:00.013	1.210256	1.280586	1.303297
00:00:00.014	1.260806	1.259341	1.326740
00:00:00.014	1.298168	1.342125	1.312821
00:00:00.014	1.229304	1.372894	1.282784
00:00:00.014	1.320879	1.383150	1.305495
00:00:00.015	1.309890	1.342857	1.276190
00:00:00.018	1.293773	1.340659	1.242491
00:00:00.018	1.285714	1.347253	1.290842
00:00:00.018	1.311355	1.334799	1.347253
00:00:00.018	1.341392	1.340659	1.356044
00:00:00.018	1.354579	1.323810	1.342125
00:00:00.018	1.326740	1.288645	1.344322
00:00:00.018	1.308425	1.275458	1.352381
00:00:00.018	1.312821	1.267399	1.338462
00:00:00.018	1.297436	1.249084	1.321612
00:00:00.018	1.318681	1.232967	1.310623
00:00:00.018	1.328205	1.233700	1.290842
00:00:00.050	1.332601	1.304762	1.148718
00:00:00.051	1.348718	1.360440	1.215385
00:00:00.052	1.353114	1.364103	1.331136
00:00:00.052	1.276923	1.379487	1.284982
00:00:00.052	1.197070	1.358242	1.253480
00:00:00.052	1.216850	1.342125	1.286447
00:00:00.052	1.290842	1.360440	1.328938
00:00:00.053	1.265201	1.315018	1.349451
00:00:00.053	1.458608	1.295971	1.348718
00:00:00.053	1.370696	1.337729	1.319414
00:00:00.054	1.341392	1.326007	1.319414
00:00:00.054	1.328938	1.293773	1.326007
00:00:00.054	1.312821	1.263004	1.310623
00:00:00.055	1.320879	1.262271	1.310623
00:00:00.055	1.311355	1.225641	1.308425
00:00:00.056	1.315751	1.268132	1.295971
00:00:00.056	1.320879	1.336996	1.293040
00:00:00.056	1.302564	1.401465	1.221245
00:00:00.057	1.295971	1.412454	1.312821
00:00:00.057	1.306227	1.298901	1.347253
00:00:00.057	1.293040	1.178022	1.332601
00:00:00.058	1.287179	1.126007	1.295238
00:00:00.058	1.286447	1.205128	1.250549
00:00:00.058	1.295238	1.292308	1.303297
00:00:00.059	1.304762	1.350183	1.311355
00:00:00.059	1.295971	1.326740	1.295238
00:00:00.059	1.303297	1.317949	1.309158
00:00:00.060	1.328938	1.319414	1.304029
00:00:00.060	1.321612	1.328938	1.305495
00:00:00.061	1.332601	1.334066	1.322344
00:00:00.061	1.333333	1.304762	1.328938
00:00:00.061	1.333333	1.368498	1.321612
00:00:00.062	1.336264	1.369963	1.320147
00:00:00.062	1.323077	1.315751	1.304762
00:00:00.062	1.320147	1.259341	1.300366
00:00:00.063	1.313553	1.252015	1.297436
00:00:00.063	1.320147	1.237363	1.300366
00:00:00.063	1.334799	1.233700	1.295971
00:00:00.064	1.265201	1.284249	1.311355
00:00:00.064	1.239560	1.346520	1.312821
00:00:00.064	1.243956	1.341392	1.312088
00:00:00.065	1.337729	1.353114	1.298168
00:00:00.065	1.294505	1.386813	1.312821
00:00:00.066	1.253480	1.378755	1.309890
00:00:00.066	1.350183	1.334799	1.312088
00:00:00.067	1.358974	1.255678	1.306960
00:00:00.067	1.345055	1.193407	1.296703
00:00:00.067	1.335531	1.224908	1.307692
00:00:00.067	1.309890	1.263004	1.304029
00:00:00.068	1.319414	1.299634	1.304029
00:00:00.100	1.317216	1.332601	1.298901
00:00:00.100	1.313553	1.375092	1.308425
00:00:00.101	1.315751	1.372894	1.293773
00:00:00.101	1.300366	1.347985	1.282051
00:00:00.101	1.303297	1.331136	1.300366
00:00:00.102	1.302564	1.317949	1.309158
00:00:00.102	1.287912	1.282784	1.323810
00:00:00.102	1.300366	1.308425	1.347253
00:00:00.103	1.300366	1.320879	1.345055
00:00:00.103	1.298901	1.317216	1.317216
00:00:00.103	1.308425	1.306960	1.325275
00:00:00.104	1.323077	1.290842	1.316484
00:00:00.104	1.328938	1.277656	1.314286
00:00:00.105	1.334066	1.254945	1.300366
00:00:00.106	1.334066	1.265934	1.238095
00:00:00.106	1.316484	1.291575	1.147985
00:00:00.106	1.320879	1.332601	1.210256
00:00:00.106	1.316484	1.383150	1.265934
00:00:00.106	1.315751	1.417582	1.345788
00:00:00.107	1.253480	1.405861	1.342857
00:00:00.107	1.268132	1.349451	1.321612
00:00:00.107	1.303297	1.265201	1.289377
00:00:00.110	1.312821	1.238828	1.305495
00:00:00.110	1.320147	1.271795	1.370696
00:00:00.110	1.313553	1.291575	1.358974
00:00:00.110	1.317216	1.262271	1.345055
00:00:00.110	1.350916	1.246154	1.339194
00:00:00.110	1.347985	1.247619	1.322344
00:00:00.110	1.347985	1.238828	1.315018
00:00:00.110	1.331136	1.287179	1.323810
00:00:00.111	1.351648	1.322344	1.311355
00:00:00.111	1.232234	1.339194	1.232967
00:00:00.111	1.228571	1.381685	1.253480
00:00:00.115	1.279853	1.531136	1.290842
00:00:00.115	1.308425	1.575092	1.304029
00:00:00.115	1.328205	1.539194	1.331136
00:00:00.115	1.354579	1.468864	1.334799
00:00:00.115	1.327473	1.350183	1.299634
00:00:00.115	1.312088	1.193407	1.303297
00:00:00.115	1.294505	0.949451	1.279121
00:00:00.115	1.298168	0.900366	1.292308
00:00:00.115	1.286447	0.992674	1.302564
00:00:00.115	1.280586	1.067399	1.298901
00:00:00.115	1.308425	1.156044	1.312821
00:00:00.116	1.347253	1.286447	1.334799
00:00:00.116	1.328205	1.367033	1.337729
00:00:00.116	1.318681	1.400000	1.334799
00:00:00.117	1.309158	1.400000	1.323810
00:00:00.117	1.308425	1.408059	1.305495
00:00:00.117	1.297436	1.380952	1.304029
00:00:00.150	1.294505	1.423443	1.299634
00:00:00.150	1.290842	1.421245	1.286447
00:00:00.151	1.306227	1.400000	1.307692
00:00:00.151	1.309158	1.332601	1.309890
00:00:00.151	1.327473	1.306960	1.312821
00:00:00.151	1.315018	1.304762	1.300366
00:00:00.152	1.297436	1.332601	1.304029
00:00:00.152	1.320879	1.367033	1.295238
00:00:00.152	1.313553	1.356044	1.276923
00:00:00.153	1.303297	1.331136	1.295238
00:00:00.153	1.293773	1.319414	1.306960
00:00:00.154	1.295238	1.332601	1.315751
00:00:00.154	1.312088	1.322344	1.312088
00:00:00.154	1.334066	1.306227	1.334066
00:00:00.155	1.332601	1.309158	1.356777
00:00:00.155	1.331136	1.315751	1.347253
00:00:00.155	1.333333	1.306227	1.331136
00:00:00.156	1.325275	1.264469	1.270330
00:00:00.156	1.315018	1.257143	1.282051
00:00:00.156	1.302564	1.280586	1.276923
00:00:00.157	1.303297	1.312088	1.291575
00:00:00.157	1.298901	1.314286	1.255678
00:00:00.157	1.297436	1.335531	1.298168
00:00:00.158	1.311355	1.400000	1.317216
00:00:00.158	1.305495	1.379487	1.314286
00:00:00.159	1.295971	1.306960	1.265201
00:00:00.159	1.302564	1.275458	1.225641
00:00:00.159	1.304029	1.261538	1.284982
00:00:00.160	1.300366	1.292308	1.336264
00:00:00.160	1.329670	1.294505	1.323810
00:00:00.160	1.326740	1.293040	1.306960
00:00:00.161	1.331136	1.287912	1.315751
00:00:00.161	1.330403	1.271062	1.343590
00:00:00.161	1.327473	1.233700	1.343590
00:00:00.162	1.328205	1.248352	1.356044
00:00:00.162	1.319414	1.293773	1.340659
00:00:00.162	1.296703	1.305495	1.308425
00:00:00.163	1.303297	1.320147	1.315018
00:00:00.163	1.286447	1.327473	1.320879
00:00:00.164	1.290842	1.323077	1.253480
00:00:00.164	1.301832	1.334799	1.260073
00:00:00.164	1.295238	1.386081	1.268864
00:00:00.165	1.315018	1.419048	1.285714
00:00:00.165	1.307692	1.356044	1.297436
00:00:00.165	1.301832	1.323810	1.295238
00:00:00.166	1.319414	1.293040	1.293040
00:00:00.166	1.311355	1.246154	1.304762
00:00:00.166	1.326007	1.217582	1.312088
00:00:00.167	1.324542	1.198535	1.307692
00:00:00.167	1.326007	1.260073	1.317949
00:00:00.199	1.325275	1.316484	1.317216
00:00:00.200	1.313553	1.306227	1.315751
00:00:00.200	1.305495	1.287912	1.314286
00:00:00.200	1.299634	1.269597	1.313553
00:00:00.201	1.294505	1.298901	1.309158
00:00:00.201	1.290110	1.332601	1.297436
00:00:00.201	1.294505	1.354579	1.299634
00:00:00.202	1.293040	1.387546	1.308425
00:00:00.202	1.296703	1.367033	1.313553
00:00:00.203	1.297436	1.312088	1.310623
00:00:00.203	1.315751	1.280586	1.309158
00:00:00.203	1.317949	1.287912	1.312821
00:00:00.205	1.326740	1.296703	1.312821
00:00:00.205	1.312088	1.255678	1.304762
00:00:00.205	1.323810	1.290842	1.307692
00:00:00.207	1.323077	1.323077	1.308425
00:00:00.207	1.317949	1.334799	1.304762
00:00:00.207	1.323810	1.343590	1.309158
00:00:00.207	1.314286	1.337729	1.293040
00:00:00.207	1.317949	1.446154	1.317216
00:00:00.207	1.315018	1.424176	1.308425
00:00:00.207	1.295971	1.338462	1.308425
00:00:00.207	1.300366	1.268864	1.296703
00:00:00.211	1.301099	1.241026	1.302564
00:00:00.211	1.297436	1.191209	1.298168
00:00:00.211	1.295971	1.104762	1.298901
00:00:00.211	1.301832	1.184615	1.304762
00:00:00.211	1.309890	1.259341	1.304762
00:00:00.211	1.316484	1.294505	1.307692
00:00:00.211	1.306960	1.317216	1.300366
00:00:00.211	1.325275	1.338462	1.309890
00:00:00.211	1.319414	1.345788	1.310623
00:00:00.211	1.306227	1.334066	1.296703
00:00:00.211	1.323810	1.334066	1.294505
00:00:00.211	1.315018	1.313553	1.278388
00:00:00.212	1.313553	1.343590	1.288645
00:00:00.212	1.308425	1.362637	1.303297
00:00:00.213	1.311355	1.354579	1.310623
00:00:00.213	1.291575	1.331868	1.295971
00:00:00.213	1.297436	1.313553	1.287912
00:00:00.214	1.291575	1.287912	1.298168
00:00:00.214	1.305495	1.276923	1.309890
00:00:00.214	1.303297	1.270330	1.312088
00:00:00.215	1.314286	1.282784	1.311355
00:00:00.215	1.306960	1.298168	1.312821
00:00:00.215	1.317949	1.316484	1.318681
00:00:00.216	1.316484	1.320879	1.317949
00:00:00.216	1.311355	1.299634	1.309890
00:00:00.217	1.324542	1.307692	1.304762
00:00:00.217	1.322344	1.319414	1.312821
00:00:00.249	1.317216	1.326007	1.310623
00:00:00.249	1.305495	1.323077	1.302564
00:00:00.250	1.300366	1.308425	1.295238
00:00:00.250	1.306227	1.308425	1.303297
00:00:00.250	1.298168	1.267399	1.293773
00:00:00.251	1.297436	1.285714	1.300366
00:00:00.251	1.290110	1.314286	1.300366
00:00:00.252	1.287912	1.340659	1.309158
00:00:00.252	1.307692	1.331868	1.327473
00:00:00.252	1.302564	1.308425	1.318681
00:00:00.253	1.309890	1.317216	1.310623
00:00:00.253	1.320879	1.322344	1.302564
00:00:00.253	1.318681	1.295971	1.306227
00:00:00.254	1.336996	1.300366	1.309890
00:00:00.254	1.329670	1.296703	1.302564
00:00:00.254	1.314286	1.278388	1.309890
00:00:00.256	1.315018	1.297436	1.304029
00:00:00.256	1.311355	1.311355	1.297436
00:00:00.256	1.309890	1.306960	1.300366
00:00:00.256	1.315751	1.302564	1.304029
00:00:00.256	1.306960	1.320147	1.303297
00:00:00.257	1.300366	1.317949	1.292308
00:00:00.257	1.304029	1.307692	1.295238
00:00:00.257	1.290110	1.318681	1.305495
00:00:00.258	1.300366	1.339927	1.309890
00:00:00.258	1.302564	1.328205	1.305495
00:00:00.258	1.312088	1.322344	1.308425
00:00:00.259	1.314286	1.298901	1.300366
00:00:00.259	1.310623	1.279121	1.304762
00:00:00.259	1.312821	1.278388	1.294505
00:00:00.260	1.329670	1.300366	1.308425
00:00:00.260	1.327473	1.283516	1.310623
00:00:00.261	1.323810	1.293773	1.304029
00:00:00.261	1.320879	1.303297	1.313553
00:00:00.261	1.321612	1.304029	1.312821
00:00:00.262	1.316484	1.315751	1.314286
00:00:00.262	1.312088	1.334066	1.309890
00:00:00.262	1.304029	1.358242	1.295971
00:00:00.263	1.299634	1.369963	1.307692
00:00:00.263	1.294505	1.323810	1.298901
00:00:00.263	1.299634	1.295238	1.302564
00:00:00.264	1.300366	1.251282	1.304762
00:00:00.264	1.300366	1.239560	1.299634
00:00:00.264	1.305495	1.277656	1.309158
00:00:00.265	1.312088	1.289377	1.302564
00:00:00.266	1.310623	1.308425	1.297436
00:00:00.266	1.329670	1.311355	1.315018
00:00:00.266	1.333333	1.279853	1.315018
00:00:00.266	1.322344	1.298168	1.311355
00:00:00.267	1.320147	1.306960	1.306960
00:00:00.300	1.320147	1.352381	1.308425
00:00:00.300	1.317949	1.375824	1.306227
00:00:00.300	1.306960	1.360440	1.304762
00:00:00.300	1.309890	1.337729	1.308425
00:00:00.300	1.303297	1.298901	1.306960
00:00:00.302	1.303297	1.293773	1.307692
00:00:00.302	1.286447	1.274725	1.301832
00:00:00.302	1.300366	1.240293	1.312088
00:00:00.302	1.301832	1.251282	1.304029
00:00:00.302	1.295971	1.292308	1.305495
00:00:00.302	1.306227	1.320879	1.304762
00:00:00.303	1.309158	1.345788	1.304029
00:00:00.303	1.309890	1.345055	1.303297
00:00:00.303	1.320879	1.309158	1.315751
00:00:00.307	1.326007	1.287179	1.309158
00:00:00.307	1.331868	1.317949	1.315018
00:00:00.307	1.329670	1.309158	1.315018
00:00:00.307	1.335531	1.314286	1.306960
00:00:00.307	1.331868	1.318681	1.301832
00:00:00.307	1.323810	1.304029	1.315018
00:00:00.307	1.309158	1.260806	1.315751
00:00:00.307	1.304029	1.276190	1.317949
00:00:00.307	1.287179	1.327473	1.307692
00:00:00.308	1.284249	1.343590	1.309158
00:00:00.308	1.287179	1.323810	1.300366
00:00:00.308	1.287179	1.309890	1.304762
00:00:00.308	1.303297	1.320879	1.300366
00:00:00.308	1.341392	1.347253	1.290842
00:00:00.309	1.345788	1.343590	1.295238
00:00:00.309	1.323810	1.306960	1.295238
00:00:00.310	1.320879	1.312088	1.300366
00:00:00.310	1.311355	1.295971	1.309158
00:00:00.310	1.298901	1.281319	1.312088
00:00:00.311	1.309158	1.312821	1.316484
00:00:00.311	1.326740	1.347985	1.312821
00:00:00.311	1.323077	1.321612	1.307692
00:00:00.312	1.309158	1.295238	1.306227
00:00:00.312	1.298168	1.285714	1.303297
00:00:00.312	1.297436	1.286447	1.313553
00:00:00.313	1.261538	1.255678	1.302564
00:00:00.313	1.271062	1.295971	1.314286
00:00:00.313	1.287179	1.325275	1.301832
00:00:00.314	1.298168	1.323810	1.300366
00:00:00.314	1.314286	1.316484	1.310623
00:00:00.315	1.323810	1.298901	1.310623
00:00:00.315	1.320879	1.295971	1.307692
00:00:00.315	1.327473	1.301832	1.306960
00:00:00.316	1.336264	1.301832	1.308425
00:00:00.316	1.319414	1.296703	1.306960
00:00:00.316	1.321612	1.296703	1.298901
00:00:00.348	1.329670	1.302564	1.311355
00:00:00.349	1.323810	1.308425	1.309890
00:00:00.349	1.317216	1.309890	1.303297
00:00:00.350	1.309158	1.307692	1.290110
00:00:00.350	1.309890	1.332601	1.298901
00:00:00.350	1.294505	1.324542	1.291575
00:00:00.351	1.291575	1.316484	1.290110
00:00:00.351	1.300366	1.327473	1.306227
00:00:00.351	1.294505	1.324542	1.300366
00:00:00.352	1.303297	1.320879	1.315751
00:00:00.352	1.317949	1.318681	1.331136
00:00:00.352	1.317216	1.307692	1.323810
00:00:00.353	1.316484	1.287912	1.320147
00:00:00.353	1.316484	1.287179	1.306227
00:00:00.354	1.327473	1.303297	1.312821
00:00:00.354	1.316484	1.293773	1.304029
00:00:00.354	1.319414	1.295971	1.307692
00:00:00.355	1.314286	1.287912	1.296703
00:00:00.355	1.307692	1.286447	1.292308
00:00:00.355	1.317949	1.298168	1.304029
00:00:00.356	1.307692	1.285714	1.303297
00:00:00.356	1.295238	1.297436	1.300366
00:00:00.356	1.288645	1.304029	1.284249
00:00:00.357	1.296703	1.320879	1.298168
00:00:00.357	1.293040	1.317949	1.297436
00:00:00.357	1.305495	1.321612	1.298901
00:00:00.358	1.309890	1.317949	1.300366
00:00:00.358	1.312088	1.317216	1.311355
00:00:00.359	1.315751	1.304762	1.300366
00:00:00.359	1.301832	1.288645	1.290110
00:00:00.360	1.326740	1.296703	1.306960
00:00:00.360	1.317949	1.298168	1.300366
00:00:00.360	1.323810	1.292308	1.314286
00:00:00.360	1.320879	1.292308	1.317216
00:00:00.361	1.315018	1.290842	1.311355
00:00:00.361	1.310623	1.307692	1.309158
00:00:00.361	1.317216	1.310623	1.306227
00:00:00.362	1.306227	1.320879	1.304762
00:00:00.362	1.298901	1.319414	1.300366
00:00:00.362	1.304029	1.322344	1.306227
00:00:00.363	1.306227	1.331136	1.304762
00:00:00.363	1.301099	1.329670	1.304029
00:00:00.367	1.297436	1.324542	1.302564
00:00:00.367	1.309158	1.307692	1.304762
00:00:00.367	1.306227	1.315018	1.311355
00:00:00.367	1.306227	1.304762	1.298168
00:00:00.367	1.317216	1.293040	1.300366
00:00:00.367	1.319414	1.270330	1.310623
00:00:00.367	1.319414	1.252747	1.304029
00:00:00.367	1.314286	1.253480	1.298901
00:00:00.399	1.326740	1.281319	1.311355
00:00:00.399	1.319414	1.295238	1.303297
00:00:00.399	1.320879	1.336264	1.309158
00:00:00.399	1.312088	1.336996	1.306227
00:00:00.403	1.306227	1.317949	1.306960
00:00:00.403	1.290110	1.311355	1.301832
00:00:00.403	1.297436	1.320147	1.300366
00:00:00.403	1.298901	1.331136	1.297436
00:00:00.403	1.288645	1.318681	1.314286
00:00:00.403	1.300366	1.293040	1.303297
00:00:00.403	1.300366	1.272527	1.298901
00:00:00.403	1.316484	1.281319	1.314286
00:00:00.403	1.322344	1.304762	1.311355
00:00:00.403	1.325275	1.345788	1.300366
00:00:00.403	1.328205	1.339194	1.310623
00:00:00.404	1.322344	1.299634	1.300366
00:00:00.404	1.328205	1.279121	1.306960
00:00:00.404	1.323077	1.289377	1.305495
00:00:00.405	1.313553	1.299634	1.292308
00:00:00.405	1.306227	1.318681	1.306227
00:00:00.405	1.306227	1.308425	1.302564
00:00:00.406	1.291575	1.292308	1.301832
00:00:00.406	1.296703	1.293773	1.300366
00:00:00.406	1.303297	1.321612	1.308425
00:00:00.407	1.305495	1.306960	1.309158
00:00:00.407	1.290110	1.310623	1.307692
00:00:00.408	1.295238	1.328205	1.304762
00:00:00.408	1.307692	1.319414	1.309158
00:00:00.408	1.313553	1.323077	1.312088
00:00:00.409	1.317949	1.313553	1.305495
00:00:00.409	1.327473	1.317216	1.309890
00:00:00.409	1.312821	1.302564	1.297436
00:00:00.410	1.331868	1.304762	1.311355
00:00:00.410	1.333333	1.298901	1.312088
00:00:00.410	1.328205	1.292308	1.317216
00:00:00.411	1.322344	1.276923	1.307692
00:00:00.411	1.303297	1.276190	1.300366
00:00:00.412	1.312821	1.306960	1.313553
00:00:00.412	1.295971	1.302564	1.292308
00:00:00.412	1.288645	1.308425	1.294505
00:00:00.413	1.300366	1.330403	1.309158
00:00:00.413	1.298901	1.321612	1.302564
00:00:00.413	1.305495	1.321612	1.310623
00:00:00.414	1.310623	1.329670	1.312088
00:00:00.414	1.298901	1.332601	1.310623
00:00:00.414	1.310623	1.307692	1.304029
00:00:00.415	1.309890	1.290110	1.289377
00:00:00.415	1.315018	1.284982	1.300366
00:00:00.415	1.314286	1.270330	1.306227
00:00:00.416	1.317949	1.260073	1.304762
00:00:00.448	1.325275	1.276190	1.310623
00:00:00.448	1.312088	1.296703	1.300366
00:00:00.449	1.312821	1.326740	1.298901
00:00:00.449	1.323077	1.364103	1.312821
00:00:00.449	1.304762	1.340659	1.310623
00:00:00.450	1.303297	1.323077	1.305495
00:00:00.450	1.310623	1.334066	1.315018
00:00:00.450	1.302564	1.330403	1.307692
00:00:00.451	1.302564	1.323810	1.315018
00:00:00.451	1.293773	1.291575	1.304029
00:00:00.452	1.292308	1.293040	1.305495
00:00:00.452	1.300366	1.294505	1.296703
00:00:00.452	1.317949	1.312088	1.312821
00:00:00.453	1.328938	1.295971	1.305495
00:00:00.453	1.309890	1.306227	1.305495
00:00:00.453	1.322344	1.298168	1.305495
00:00:00.454	1.320147	1.280586	1.303297
00:00:00.454	1.323810	1.279121	1.291575
00:00:00.454	1.312088	1.282051	1.308425
00:00:00.455	1.306227	1.267399	1.314286
00:00:00.455	1.308425	1.284982	1.310623
00:00:00.455	1.303297	1.327473	1.309890
00:00:00.456	1.296703	1.345055	1.313553
00:00:00.456	1.285714	1.322344	1.298168
00:00:00.457	1.313553	1.328205	1.306960
00:00:00.457	1.326740	1.317949	1.300366
00:00:00.457	1.310623	1.312088	1.302564
00:00:00.458	1.312821	1.313553	1.310623
00:00:00.458	1.312088	1.308425	1.298168
00:00:00.458	1.303297	1.308425	1.300366
00:00:00.459	1.270330	1.304029	1.296703
00:00:00.459	1.286447	1.308425	1.311355
00:00:00.459	1.304029	1.295971	1.303297
00:00:00.462	1.353114	1.293040	1.306227
00:00:00.462	1.350916	1.301099	1.311355
00:00:00.462	1.334799	1.308425	1.312088
00:00:00.462	1.316484	1.304762	1.310623
00:00:00.462	1.306227	1.304029	1.311355
00:00:00.463	1.273993	1.304762	1.287912
00:00:00.463	1.269597	1.304762	1.300366
00:00:00.463	1.287179	1.313553	1.317949
00:00:00.463	1.285714	1.306960	1.313553
00:00:00.463	1.306227	1.308425	1.305495
00:00:00.467	1.320147	1.314286	1.326740
00:00:00.467	1.316484	1.315751	1.317216
00:00:00.467	1.312821	1.317216	1.234432
00:00:00.467	1.326007	1.300366	1.234432
00:00:00.467	1.322344	1.284249	1.279121
00:00:00.467	1.330403	1.304029	1.304762
00:00:00.467	1.321612	1.299634	1.308425
00:00:00.499	1.320147	1.287912	1.309158
00:00:00.499	1.323810	1.298168	1.330403
00:00:00.499	1.315751	1.304029	1.319414
00:00:00.499	1.315018	1.311355	1.323077
00:00:00.499	1.309890	1.320879	1.322344
00:00:00.499	1.301099	1.312821	1.283516
00:00:00.500	1.293773	1.294505	1.307692
00:00:00.500	1.295238	1.315018	1.317949
00:00:00.501	1.301832	1.321612	1.310623
00:00:00.501	1.308425	1.328205	1.316484
00:00:00.501	1.301832	1.314286	1.300366
00:00:00.502	1.304029	1.312821	1.310623
00:00:00.502	1.315751	1.312821	1.306960
00:00:00.502	1.314286	1.293040	1.293040
00:00:00.503	1.320147	1.300366	1.300366
00:00:00.503	1.326740	1.300366	1.307692
00:00:00.503	1.314286	1.305495	1.290842
00:00:00.504	1.321612	1.318681	1.312088
00:00:00.504	1.319414	1.300366	1.300366
00:00:00.504	1.315018	1.299634	1.306960
00:00:00.505	1.315751	1.304029	1.306227
00:00:00.505	1.308425	1.301832	1.306960
00:00:00.506	1.306227	1.295971	1.309890
00:00:00.506	1.300366	1.289377	1.309158
00:00:00.506	1.290842	1.288645	1.309158
00:00:00.507	1.301832	1.306960	1.306227
00:00:00.507	1.292308	1.315018	1.300366
00:00:00.507	1.303297	1.326007	1.314286
00:00:00.508	1.300366	1.323077	1.306227
00:00:00.508	1.301099	1.309890	1.297436
00:00:00.508	1.313553	1.298901	1.309890
00:00:00.509	1.309158	1.277656	1.302564
00:00:00.509	1.323077	1.288645	1.304029
00:00:00.509	1.312088	1.283516	1.293773
00:00:00.510	1.315751	1.275458	1.302564
00:00:00.510	1.316484	1.276923	1.303297
00:00:00.511	1.313553	1.295971	1.311355
00:00:00.511	1.314286	1.303297	1.300366
00:00:00.511	1.308425	1.317216	1.308425
00:00:00.512	1.309158	1.328205	1.294505
00:00:00.512	1.304029	1.343590	1.306960
00:00:00.512	1.302564	1.338462	1.300366
00:00:00.513	1.306227	1.339194	1.312821
00:00:00.513	1.302564	1.326740	1.301832
00:00:00.513	1.304762	1.318681	1.304029
00:00:00.514	1.317949	1.312088	1.313553
00:00:00.514	1.321612	1.311355	1.305495
00:00:00.514	1.315018	1.300366	1.306960
00:00:00.515	1.325275	1.307692	1.309158
00:00:00.515	1.318681	1.294505	1.312088
00:00:00.548	1.320879	1.295238	1.308425
00:00:00.548	1.316484	1.296703	1.304762
00:00:00.548	1.305495	1.288645	1.295971
00:00:00.548	1.309158	1.299634	1.295971
00:00:00.549	1.314286	1.316484	1.307692
00:00:00.549	1.297436	1.317949	1.304762
00:00:00.550	1.305495	1.326007	1.307692
00:00:00.550	1.297436	1.306960	1.293040
00:00:00.550	1.290110	1.312821	1.306960
00:00:00.551	1.300366	1.316484	1.300366
00:00:00.551	1.307692	1.313553	1.301832
00:00:00.551	1.306960	1.290110	1.302564
00:00:00.552	1.308425	1.291575	1.300366
00:00:00.552	1.312088	1.286447	1.303297
00:00:00.552	1.317949	1.275458	1.314286
00:00:00.553	1.315751	1.293773	1.314286
00:00:00.553	1.317949	1.282051	1.312821
00:00:00.553	1.323077	1.282051	1.305495
00:00:00.554	1.328938	1.295238	1.310623
00:00:00.554	1.336996	1.301832	1.312088
00:00:00.555	1.318681	1.296703	1.303297
00:00:00.555	1.299634	1.307692	1.304029
00:00:00.555	1.305495	1.342125	1.306227
00:00:00.559	1.299634	1.349451	1.306227
00:00:00.559	1.293040	1.349451	1.310623
00:00:00.559	1.297436	1.346520	1.307692
00:00:00.559	1.297436	1.340659	1.307692
00:00:00.559	1.305495	1.332601	1.315018
00:00:00.559	1.307692	1.322344	1.307692
00:00:00.559	1.312088	1.309890	1.315018
00:00:00.559	1.317949	1.271795	1.309158
00:00:00.559	1.317216	1.274725	1.307692
00:00:00.559	1.323077	1.283516	1.298901
00:00:00.559	1.330403	1.294505	1.306960
00:00:00.563	1.315018	1.293040	1.298901
00:00:00.563	1.320879	1.289377	1.294505
00:00:00.563	1.323810	1.292308	1.288645
00:00:00.563	1.303297	1.299634	1.305495
00:00:00.563	1.301832	1.304029	1.296703
00:00:00.563	1.303297	1.323810	1.310623
00:00:00.563	1.293773	1.312821	1.312088
00:00:00.563	1.292308	1.315751	1.298901
00:00:00.563	1.305495	1.318681	1.315018
00:00:00.563	1.306227	1.312088	1.312821
00:00:00.563	1.292308	1.290110	1.290842
00:00:00.563	1.309158	1.302564	1.307692
00:00:00.564	1.307692	1.292308	1.301832
00:00:00.564	1.324542	1.301099	1.311355
00:00:00.565	1.326740	1.298168	1.312088
00:00:00.565	1.332601	1.323077	1.313553
