timestamp	ch1	ch2	ch3
00:00:00.000	1.323810	1.311355	1.313553
00:00:00.000	1.320147	1.311355	1.317949
00:00:00.000	1.306960	1.308425	1.317949
00:00:00.000	1.308425	1.293040	1.315751
00:00:00.000	1.288645	1.282784	1.301832
00:00:00.000	1.284249	1.287179	1.300366
00:00:00.000	1.286447	1.308425	1.305495
00:00:00.000	1.277656	1.350916	1.298168
00:00:00.000	1.307692	1.346520	1.300366
00:00:00.000	1.316484	1.308425	1.298168
00:00:00.000	1.307692	1.295971	1.297436
00:00:00.000	1.287912	1.283516	1.298901
00:00:00.001	1.286447	1.279121	1.300366
00:00:00.002	1.312088	1.256410	1.295971
00:00:00.002	1.331868	1.223443	1.298901
00:00:00.002	1.321612	1.221978	1.291575
00:00:00.002	1.318681	1.272527	1.299634
00:00:00.002	1.323077	1.306227	1.309890
00:00:00.003	1.301832	1.328938	1.300366
00:00:00.003	1.300366	1.354579	1.307692
00:00:00.003	1.316484	1.350183	1.309158
00:00:00.004	1.312821	1.328205	1.317216
00:00:00.004	1.313553	1.324542	1.312821
00:00:00.005	1.312821	1.315018	1.300366
00:00:00.005	1.310623	1.300366	1.293773
00:00:00.005	1.318681	1.297436	1.303297
00:00:00.006	1.326740	1.356044	1.307692
00:00:00.006	1.323810	1.370696	1.293773
00:00:00.006	1.304029	1.323077	1.294505
00:00:00.007	1.292308	1.263736	1.290842
00:00:00.007	1.303297	1.320147	1.300366
00:00:00.007	1.305495	1.365568	1.293040
00:00:00.008	1.306227	1.350916	1.310623
00:00:00.008	1.298901	1.298901	1.298901
00:00:00.008	1.285714	1.246154	1.308425
00:00:00.009	1.287179	1.252015	1.320879
00:00:00.009	1.294505	1.249817	1.320147
00:00:00.010	1.303297	1.212454	1.300366
00:00:00.010	1.330403	1.213187	1.309890
00:00:00.010	1.350183	1.249817	1.303297
00:00:00.011	1.348718	1.283516	1.303297
00:00:00.011	1.340659	1.324542	1.308425
00:00:00.011	1.323810	1.315751	1.289377
00:00:00.012	1.301099	1.289377	1.272527
00:00:00.012	1.303297	1.317216	1.295971
00:00:00.012	1.296703	1.334066	1.301832
00:00:00.013	1.290842	1.352381	1.302564
00:00:00.013	1.267399	1.336996	1.295971
00:00:00.014	1.291575	1.317949	1.302564
00:00:00.014	1.289377	1.304029	1.309158
00:00:00.046	1.310623	1.324542	1.309158
00:00:00.046	1.312821	1.314286	1.298901
00:00:00.047	1.307692	1.299634	1.311355
00:00:00.047	1.292308	1.287912	1.311355
00:00:00.047	1.273260	1.277656	1.314286
00:00:00.048	1.287912	1.283516	1.314286
00:00:00.048	1.323810	1.300366	1.305495
00:00:00.049	1.355311	1.315018	1.290842
00:00:00.049	1.384615	1.345788	1.306227
00:00:00.049	1.364103	1.326007	1.296703
00:00:00.050	1.341392	1.320879	1.294505
00:00:00.050	1.276923	1.310623	1.294505
00:00:00.050	1.282051	1.328938	1.294505
00:00:00.051	1.310623	1.339194	1.299634
00:00:00.051	1.323810	1.345788	1.305495
00:00:00.051	1.310623	1.364835	1.308425
00:00:00.052	1.289377	1.367033	1.311355
00:00:00.052	1.297436	1.318681	1.311355
00:00:00.052	1.306227	1.274725	1.314286
00:00:00.053	1.283516	1.213187	1.315018
00:00:00.055	1.277656	1.215385	1.312821
00:00:00.055	1.280586	1.230769	1.299634
00:00:00.055	1.293773	1.267399	1.306227
00:00:00.055	1.294505	1.314286	1.299634
00:00:00.055	1.293773	1.314286	1.296703
00:00:00.055	1.309158	1.307692	1.300366
00:00:00.055	1.312821	1.312821	1.294505
00:00:00.057	1.312088	1.304762	1.291575
00:00:00.057	1.312088	1.309890	1.290110
00:00:00.057	1.306227	1.323810	1.291575
00:00:00.057	1.301832	1.315018	1.293773
00:00:00.059	1.313553	1.304029	1.299634
00:00:00.059	1.308425	1.288645	1.294505
00:00:00.059	1.329670	1.322344	1.315751
00:00:00.059	1.331868	1.312821	1.311355
00:00:00.060	1.315018	1.301832	1.309158
00:00:00.060	1.316484	1.318681	1.311355
00:00:00.060	1.331868	1.310623	1.316484
00:00:00.060	1.310623	1.297436	1.310623
00:00:00.060	1.317949	1.347985	1.307692
00:00:00.060	1.312088	1.380952	1.304029
00:00:00.065	1.296703	1.311355	1.298901
00:00:00.065	1.302564	1.271062	1.299634
00:00:00.065	1.304029	1.253480	1.282784
00:00:00.065	1.315751	1.249084	1.296703
00:00:00.065	1.315751	1.248352	1.300366
00:00:00.065	1.298168	1.219780	1.300366
00:00:00.065	1.301832	1.246154	1.296703
00:00:00.065	1.310623	1.303297	1.295971
00:00:00.065	1.309158	1.335531	1.300366
00:00:00.098	1.313553	1.324542	1.312088
00:00:00.098	1.298168	1.317216	1.298901
00:00:00.098	1.304762	1.345055	1.315018
00:00:00.098	1.303297	1.348718	1.311355
00:00:00.098	1.294505	1.315018	1.305495
00:00:00.098	1.309158	1.301832	1.310623
00:00:00.098	1.318681	1.325275	1.293040
00:00:00.098	1.322344	1.353846	1.307692
00:00:00.099	1.309890	1.329670	1.299634
00:00:00.099	1.298901	1.312088	1.295238
00:00:00.099	1.315018	1.300366	1.300366
00:00:00.100	1.320879	1.290842	1.295238
00:00:00.100	1.319414	1.282051	1.295971
00:00:00.100	1.312088	1.249817	1.299634
00:00:00.101	1.313553	1.239560	1.300366
00:00:00.101	1.316484	1.288645	1.312088
00:00:00.101	1.315751	1.313553	1.312821
00:00:00.102	1.298901	1.312821	1.299634
00:00:00.102	1.312088	1.317949	1.318681
00:00:00.103	1.315751	1.327473	1.317949
00:00:00.103	1.293773	1.331136	1.316484
00:00:00.103	1.290842	1.341392	1.309890
00:00:00.104	1.284249	1.355311	1.300366
00:00:00.104	1.300366	1.358242	1.300366
00:00:00.104	1.303297	1.334799	1.303297
00:00:00.105	1.306960	1.296703	1.299634
00:00:00.105	1.309158	1.260806	1.300366
00:00:00.106	1.314286	1.256410	1.293773
00:00:00.106	1.314286	1.263736	1.298168
00:00:00.106	1.314286	1.255678	1.297436
00:00:00.106	1.310623	1.268132	1.290842
00:00:00.107	1.320879	1.317216	1.300366
00:00:00.107	1.301832	1.304029	1.299634
00:00:00.108	1.304762	1.309158	1.300366
00:00:00.108	1.293040	1.321612	1.299634
00:00:00.108	1.309158	1.342125	1.312088
00:00:00.109	1.309890	1.335531	1.312088
00:00:00.109	1.315018	1.296703	1.311355
00:00:00.109	1.335531	1.271795	1.317216
00:00:00.110	1.331136	1.247619	1.306960
00:00:00.110	1.333333	1.249084	1.298168
00:00:00.110	1.340659	1.266667	1.304762
00:00:00.111	1.333333	1.294505	1.298901
00:00:00.111	1.303297	1.335531	1.290842
00:00:00.112	1.284249	1.358242	1.290110
00:00:00.112	1.220513	1.345788	1.304029
00:00:00.112	1.231502	1.339194	1.304762
00:00:00.113	1.249817	1.323077	1.302564
00:00:00.113	1.266667	1.300366	1.300366
00:00:00.113	1.319414	1.281319	1.304029
00:00:00.145	1.373626	1.294505	1.311355
00:00:00.146	1.383883	1.320879	1.313553
00:00:00.146	1.354579	1.315018	1.306960
00:00:00.147	1.339194	1.320879	1.315018
00:00:00.147	1.330403	1.301099	1.304029
00:00:00.147	1.319414	1.286447	1.312821
00:00:00.148	1.303297	1.271795	1.308425
00:00:00.148	1.268132	1.255678	1.304762
00:00:00.148	1.287179	1.268132	1.304029
00:00:00.149	1.317216	1.289377	1.299634
00:00:00.149	1.312088	1.336996	1.306227
00:00:00.149	1.297436	1.357509	1.293773
00:00:00.150	1.292308	1.373626	1.290842
00:00:00.150	1.304762	1.374359	1.298168
00:00:00.150	1.306227	1.360440	1.309890
00:00:00.152	1.309158	1.345055	1.310623
00:00:00.152	1.314286	1.338462	1.306227
00:00:00.152	1.315751	1.315751	1.306227
00:00:00.152	1.308425	1.232234	1.298901
00:00:00.154	1.327473	1.238095	1.309890
00:00:00.154	1.323810	1.224176	1.309890
00:00:00.154	1.316484	1.211722	1.303297
00:00:00.154	1.305495	1.233700	1.304762
00:00:00.155	1.314286	1.262271	1.300366
00:00:00.155	1.317949	1.308425	1.300366
00:00:00.155	1.312088	1.343590	1.309158
00:00:00.155	1.303297	1.336264	1.300366
00:00:00.155	1.304762	1.335531	1.298168
00:00:00.157	1.323077	1.337729	1.295971
00:00:00.157	1.297436	1.318681	1.282784
00:00:00.157	1.299634	1.329670	1.298901
00:00:00.157	1.305495	1.326007	1.299634
00:00:00.157	1.321612	1.316484	1.304762
00:00:00.157	1.322344	1.304029	1.304029
00:00:00.162	1.323810	1.300366	1.303297
00:00:00.162	1.317216	1.297436	1.304029
00:00:00.162	1.332601	1.291575	1.309158
00:00:00.162	1.323810	1.296703	1.315018
00:00:00.162	1.311355	1.312821	1.312821
00:00:00.162	1.292308	1.322344	1.305495
00:00:00.162	1.290110	1.310623	1.303297
00:00:00.162	1.288645	1.303297	1.300366
00:00:00.162	1.292308	1.323810	1.288645
00:00:00.162	1.315751	1.332601	1.297436
00:00:00.162	1.328205	1.315018	1.300366
00:00:00.162	1.300366	1.275458	1.295971
00:00:00.162	1.299634	1.277656	1.293773
00:00:00.162	1.297436	1.286447	1.289377
00:00:00.163	1.313553	1.283516	1.302564
00:00:00.163	1.301099	1.255678	1.300366
00:00:00.195	1.313553	1.266667	1.304762
00:00:00.196	1.307692	1.299634	1.304762
00:00:00.196	1.305495	1.312088	1.309890
00:00:00.196	1.300366	1.306960	1.312821
00:00:00.197	1.320147	1.311355	1.317216
00:00:00.197	1.312088	1.314286	1.315018
00:00:00.197	1.312821	1.323077	1.310623
00:00:00.198	1.310623	1.309890	1.309890
00:00:00.198	1.298168	1.305495	1.300366
00:00:00.198	1.313553	1.318681	1.304762
00:00:00.199	1.315018	1.309158	1.294505
00:00:00.199	1.309158	1.314286	1.291575
00:00:00.199	1.315751	1.323077	1.304762
00:00:00.200	1.309890	1.317216	1.295238
00:00:00.200	1.300366	1.317216	1.304029
00:00:00.201	1.300366	1.320879	1.307692
00:00:00.201	1.317216	1.295971	1.302564
00:00:00.201	1.318681	1.297436	1.312821
00:00:00.202	1.299634	1.310623	1.319414
00:00:00.202	1.295971	1.296703	1.304029
00:00:00.202	1.312088	1.306227	1.317949
00:00:00.203	1.318681	1.304762	1.309158
00:00:00.203	1.314286	1.296703	1.309158
00:00:00.203	1.315018	1.301832	1.304762
00:00:00.204	1.317949	1.314286	1.300366
00:00:00.204	1.316484	1.300366	1.292308
00:00:00.205	1.315018	1.290842	1.300366
00:00:00.205	1.313553	1.285714	1.286447
00:00:00.205	1.312088	1.303297	1.294505
00:00:00.206	1.316484	1.294505	1.297436
00:00:00.206	1.313553	1.298901	1.298168
00:00:00.206	1.311355	1.300366	1.299634
00:00:00.207	1.312088	1.297436	1.300366
00:00:00.207	1.317949	1.297436	1.307692
00:00:00.207	1.304029	1.289377	1.307692
00:00:00.208	1.300366	1.298901	1.308425
00:00:00.208	1.288645	1.310623	1.310623
00:00:00.208	1.305495	1.317949	1.310623
00:00:00.209	1.312088	1.311355	1.311355
00:00:00.209	1.313553	1.312088	1.309890
00:00:00.210	1.320879	1.308425	1.306960
00:00:00.211	1.319414	1.306960	1.298901
00:00:00.211	1.322344	1.315018	1.306227
00:00:00.211	1.313553	1.312088	1.295238
00:00:00.211	1.312821	1.312821	1.289377
00:00:00.211	1.312088	1.317949	1.297436
00:00:00.212	1.306960	1.317949	1.302564
00:00:00.212	1.321612	1.305495	1.300366
00:00:00.212	1.304762	1.304762	1.304029
00:00:00.213	1.314286	1.311355	1.302564
00:00:00.245	1.285714	1.293773	1.299634
00:00:00.246	1.299634	1.290110	1.298168
00:00:00.246	1.302564	1.299634	1.315018
00:00:00.246	1.308425	1.302564	1.309158
00:00:00.246	1.311355	1.306960	1.307692
00:00:00.250	1.297436	1.298168	1.304029
00:00:00.250	1.315018	1.304029	1.310623
00:00:00.250	1.321612	1.304029	1.304029
00:00:00.250	1.326007	1.302564	1.300366
00:00:00.250	1.319414	1.302564	1.298168
00:00:00.250	1.254945	1.298168	1.290842
00:00:00.250	1.267399	1.309890	1.291575
00:00:00.250	1.315751	1.308425	1.298168
00:00:00.251	1.337729	1.316484	1.298168
00:00:00.251	1.343590	1.309890	1.290842
00:00:00.251	1.356044	1.312821	1.296703
00:00:00.251	1.344322	1.297436	1.291575
00:00:00.251	1.322344	1.299634	1.311355
00:00:00.251	1.273260	1.306960	1.315751
00:00:00.253	1.254945	1.301832	1.322344
00:00:00.253	1.271062	1.290842	1.317949
00:00:00.253	1.310623	1.295971	1.312821
00:00:00.253	1.305495	1.290842	1.297436
00:00:00.253	1.319414	1.306960	1.310623
00:00:00.253	1.321612	1.311355	1.306227
00:00:00.259	1.314286	1.310623	1.291575
00:00:00.259	1.290842	1.321612	1.298168
00:00:00.259	1.313553	1.312088	1.300366
00:00:00.259	1.314286	1.298901	1.285714
00:00:00.259	1.327473	1.314286	1.302564
00:00:00.259	1.312088	1.306227	1.297436
00:00:00.259	1.318681	1.314286	1.305495
00:00:00.259	1.319414	1.311355	1.304762
00:00:00.259	1.316484	1.309158	1.310623
00:00:00.259	1.312821	1.301832	1.312821
00:00:00.259	1.297436	1.299634	1.309890
00:00:00.259	1.296703	1.300366	1.315751
00:00:00.259	1.288645	1.293773	1.312088
00:00:00.259	1.297436	1.295971	1.315751
00:00:00.259	1.299634	1.300366	1.316484
00:00:00.259	1.295238	1.301099	1.320147
00:00:00.260	1.309158	1.304762	1.315751
00:00:00.260	1.314286	1.295238	1.278388
00:00:00.260	1.341392	1.311355	1.285714
00:00:00.261	1.355311	1.312088	1.276923
00:00:00.261	1.312088	1.301099	1.270330
00:00:00.261	1.312088	1.312821	1.305495
00:00:00.262	1.326740	1.316484	1.321612
00:00:00.263	1.317949	1.317216	1.306227
00:00:00.263	1.346520	1.323077	1.291575
00:00:00.295	1.343590	1.311355	1.294505
00:00:00.295	1.290110	1.292308	1.296703
00:00:00.295	1.289377	1.306960	1.318681
00:00:00.296	1.266667	1.295971	1.315018
00:00:00.296	1.262271	1.300366	1.314286
00:00:00.296	1.285714	1.301832	1.312821
00:00:00.297	1.300366	1.290110	1.293773
00:00:00.297	1.316484	1.296703	1.299634
00:00:00.297	1.320147	1.306960	1.299634
00:00:00.298	1.308425	1.309158	1.296703
00:00:00.298	1.303297	1.311355	1.296703
00:00:00.299	1.297436	1.317216	1.295238
00:00:00.299	1.298901	1.312088	1.283516
00:00:00.299	1.301099	1.315751	1.293773
00:00:00.300	1.320147	1.310623	1.295971
00:00:00.300	1.372894	1.300366	1.304029
00:00:00.300	1.315018	1.306227	1.312821
00:00:00.301	1.283516	1.298901	1.302564
00:00:00.301	1.295971	1.293773	1.306960
00:00:00.301	1.330403	1.304029	1.318681
00:00:00.302	1.342125	1.290110	1.311355
00:00:00.302	1.323077	1.298168	1.317949
00:00:00.302	1.307692	1.299634	1.315018
00:00:00.303	1.306960	1.301099	1.306960
00:00:00.303	1.311355	1.304029	1.317216
00:00:00.304	1.305495	1.301099	1.290110
00:00:00.304	1.300366	1.296703	1.297436
00:00:00.304	1.311355	1.302564	1.299634
00:00:00.305	1.312088	1.304762	1.284982
00:00:00.305	1.315018	1.317949	1.292308
00:00:00.305	1.314286	1.326007	1.298901
00:00:00.307	1.317216	1.315018	1.294505
00:00:00.307	1.318681	1.312821	1.300366
00:00:00.307	1.306227	1.303297	1.297436
00:00:00.307	1.302564	1.298168	1.307692
00:00:00.307	1.304029	1.298168	1.306960
00:00:00.308	1.287179	1.279853	1.306227
00:00:00.308	1.306227	1.297436	1.321612
00:00:00.308	1.290110	1.297436	1.311355
00:00:00.309	1.263004	1.296703	1.312088
00:00:00.309	1.297436	1.302564	1.308425
00:00:00.309	1.311355	1.298168	1.306960
00:00:00.311	1.310623	1.300366	1.298901
00:00:00.311	1.330403	1.320879	1.299634
00:00:00.311	1.328205	1.317216	1.293773
00:00:00.311	1.335531	1.315018	1.302564
00:00:00.311	1.317216	1.312821	1.303297
00:00:00.311	1.311355	1.321612	1.298168
00:00:00.313	1.309158	1.326740	1.304029
00:00:00.313	1.315018	1.320147	1.304029
00:00:00.346	1.307692	1.306960	1.299634
00:00:00.346	1.313553	1.312821	1.310623
00:00:00.346	1.303297	1.299634	1.306227
00:00:00.346	1.300366	1.298168	1.321612
00:00:00.346	1.298901	1.295238	1.309890
00:00:00.348	1.306227	1.290110	1.306960
00:00:00.348	1.306227	1.284982	1.303297
00:00:00.348	1.314286	1.285714	1.309890
00:00:00.348	1.315018	1.295971	1.304029
00:00:00.350	1.314286	1.301099	1.298168
00:00:00.350	1.315751	1.295971	1.295971
00:00:00.350	1.312088	1.299634	1.296703
00:00:00.350	1.312821	1.306227	1.293773
00:00:00.350	1.304029	1.312821	1.293773
00:00:00.350	1.304762	1.315018	1.300366
00:00:00.350	1.305495	1.304762	1.289377
00:00:00.350	1.308425	1.315018	1.305495
00:00:00.350	1.312088	1.307692	1.305495
00:00:00.355	1.298168	1.303297	1.307692
00:00:00.355	1.316484	1.303297	1.319414
00:00:00.355	1.318681	1.292308	1.302564
00:00:00.355	1.305495	1.292308	1.308425
00:00:00.355	1.320879	1.304762	1.319414
00:00:00.355	1.315751	1.304029	1.308425
00:00:00.355	1.313553	1.315751	1.312821
00:00:00.355	1.304762	1.313553	1.300366
00:00:00.355	1.308425	1.312821	1.298168
00:00:00.355	1.317949	1.318681	1.300366
00:00:00.355	1.312088	1.315018	1.292308
00:00:00.355	1.317216	1.315018	1.295971
00:00:00.355	1.316484	1.309890	1.293040
00:00:00.355	1.312088	1.300366	1.284249
00:00:00.356	1.313553	1.306960	1.300366
00:00:00.356	1.306960	1.300366	1.309158
00:00:00.357	1.295238	1.288645	1.300366
00:00:00.357	1.316484	1.301099	1.312088
00:00:00.357	1.311355	1.308425	1.312088
00:00:00.358	1.300366	1.304762	1.320879
00:00:00.358	1.306227	1.301832	1.317949
00:00:00.358	1.306960	1.287179	1.300366
00:00:00.359	1.310623	1.298901	1.312821
00:00:00.359	1.315018	1.306227	1.311355
00:00:00.359	1.305495	1.293773	1.292308
00:00:00.360	1.309890	1.314286	1.304762
00:00:00.360	1.296703	1.312088	1.294505
00:00:00.360	1.300366	1.314286	1.293773
00:00:00.361	1.306960	1.314286	1.298168
00:00:00.361	1.299634	1.308425	1.284249
00:00:00.362	1.308425	1.308425	1.295238
00:00:00.362	1.328205	1.312088	1.302564
00:00:00.394	1.369963	1.306227	1.301832
00:00:00.394	1.359707	1.304029	1.304029
00:00:00.395	1.334799	1.305495	1.303297
00:00:00.395	1.334799	1.303297	1.318681
00:00:00.395	1.302564	1.304029	1.308425
00:00:00.396	1.270330	1.304762	1.310623
00:00:00.396	1.260073	1.300366	1.312821
00:00:00.397	1.295971	1.295971	1.304762
00:00:00.397	1.296703	1.293040	1.295971
00:00:00.397	1.305495	1.306960	1.300366
00:00:00.398	1.279853	1.301832	1.295971
00:00:00.398	1.275458	1.303297	1.291575
00:00:00.399	1.324542	1.322344	1.300366
00:00:00.399	1.310623	1.315018	1.288645
00:00:00.399	1.320147	1.316484	1.300366
00:00:00.399	1.319414	1.312821	1.297436
00:00:00.400	1.316484	1.317949	1.298168
00:00:00.400	1.317216	1.323077	1.312821
00:00:00.400	1.309158	1.314286	1.311355
00:00:00.401	1.305495	1.297436	1.308425
00:00:00.401	1.305495	1.288645	1.310623
00:00:00.402	1.302564	1.287179	1.314286
00:00:00.402	1.284982	1.275458	1.305495
00:00:00.402	1.303297	1.284982	1.316484
00:00:00.403	1.300366	1.289377	1.306960
00:00:00.403	1.294505	1.297436	1.300366
00:00:00.403	1.287179	1.306227	1.291575
00:00:00.404	1.295971	1.315018	1.289377
00:00:00.404	1.296703	1.310623	1.293040
00:00:00.404	1.378755	1.312088	1.307692
00:00:00.405	1.350183	1.305495	1.303297
00:00:00.406	1.315018	1.306960	1.320147
00:00:00.406	1.316484	1.309158	1.318681
00:00:00.406	1.323077	1.317949	1.316484
00:00:00.406	1.345788	1.311355	1.304029
00:00:00.408	1.336996	1.309890	1.296703
00:00:00.408	1.308425	1.306227	1.294505
00:00:00.408	1.317949	1.311355	1.304029
00:00:00.408	1.306960	1.304762	1.294505
00:00:00.408	1.305495	1.318681	1.296703
00:00:00.408	1.301832	1.325275	1.306960
00:00:00.413	1.300366	1.304762	1.314286
00:00:00.413	1.292308	1.282784	1.305495
00:00:00.413	1.273993	1.289377	1.309158
00:00:00.413	1.290842	1.296703	1.298901
00:00:00.413	1.284982	1.302564	1.306960
00:00:00.413	1.306227	1.297436	1.291575
00:00:00.413	1.317216	1.313553	1.292308
00:00:00.413	1.317949	1.318681	1.295238
00:00:00.413	1.315018	1.306227	1.298168
00:00:00.444	1.309890	1.303297	1.295238
00:00:00.444	1.312088	1.315018	1.314286
00:00:00.444	1.323810	1.313553	1.314286
00:00:00.445	1.306227	1.303297	1.308425
00:00:00.445	1.309158	1.300366	1.317216
00:00:00.450	1.309890	1.303297	1.317216
00:00:00.450	1.306227	1.287912	1.300366
00:00:00.450	1.295238	1.293040	1.311355
00:00:00.450	1.298901	1.303297	1.303297
00:00:00.450	1.307692	1.304029	1.300366
00:00:00.450	1.308425	1.304029	1.299634
00:00:00.450	1.317216	1.304029	1.299634
00:00:00.450	1.323077	1.307692	1.291575
00:00:00.450	1.328205	1.311355	1.300366
00:00:00.450	1.340659	1.320147	1.303297
00:00:00.450	1.344322	1.326007	1.300366
00:00:00.450	1.312088	1.321612	1.300366
00:00:00.450	1.298901	1.317949	1.302564
00:00:00.451	1.306960	1.312821	1.314286
00:00:00.451	1.306227	1.311355	1.314286
00:00:00.451	1.302564	1.304029	1.312821
00:00:00.451	1.301832	1.310623	1.317949
00:00:00.452	1.312821	1.308425	1.312821
00:00:00.452	1.298901	1.302564	1.310623
00:00:00.452	1.302564	1.298901	1.306227
00:00:00.453	1.298168	1.293773	1.307692
00:00:00.453	1.314286	1.289377	1.303297
00:00:00.453	1.313553	1.285714	1.294505
00:00:00.454	1.326740	1.291575	1.298168
00:00:00.454	1.327473	1.296703	1.300366
00:00:00.454	1.310623	1.289377	1.283516
00:00:00.455	1.306227	1.300366	1.296703
00:00:00.455	1.313553	1.311355	1.301832
00:00:00.456	1.307692	1.313553	1.294505
00:00:00.456	1.307692	1.324542	1.302564
00:00:00.456	1.304029	1.324542	1.303297
00:00:00.457	1.309890	1.323810	1.317216
00:00:00.457	1.304029	1.309890	1.316484
00:00:00.457	1.312088	1.292308	1.309158
00:00:00.458	1.309890	1.288645	1.315018
00:00:00.458	1.308425	1.283516	1.300366
00:00:00.458	1.305495	1.295238	1.310623
00:00:00.459	1.307692	1.285714	1.304762
00:00:00.459	1.313553	1.303297	1.306960
00:00:00.460	1.316484	1.320147	1.305495
00:00:00.460	1.312088	1.323810	1.286447
00:00:00.460	1.320879	1.339194	1.298168
00:00:00.461	1.321612	1.327473	1.299634
00:00:00.461	1.314286	1.311355	1.304762
00:00:00.461	1.308425	1.301099	1.312821
00:00:00.493	1.316484	1.304029	1.312088
00:00:00.494	1.298168	1.298168	1.312821
00:00:00.494	1.310623	1.303297	1.315751
00:00:00.495	1.308425	1.301832	1.314286
00:00:00.495	1.309158	1.290842	1.306227
00:00:00.495	1.312821	1.302564	1.310623
00:00:00.496	1.315018	1.310623	1.315751
00:00:00.496	1.301832	1.311355	1.295971
00:00:00.496	1.306227	1.336264	1.295971
00:00:00.497	1.299634	1.334066	1.292308
00:00:00.497	1.322344	1.335531	1.304029
00:00:00.497	1.312088	1.332601	1.295971
00:00:00.498	1.316484	1.320147	1.301832
00:00:00.498	1.302564	1.270330	1.295238
00:00:00.498	1.299634	1.253480	1.285714
00:00:00.499	1.320879	1.265934	1.304762
00:00:00.499	1.307692	1.264469	1.294505
00:00:00.500	1.316484	1.282051	1.303297
00:00:00.500	1.303297	1.271062	1.298168
00:00:00.500	1.295971	1.266667	1.298168
00:00:00.501	1.299634	1.291575	1.309158
00:00:00.501	1.300366	1.301099	1.318681
00:00:00.501	1.302564	1.297436	1.311355
00:00:00.503	1.301832	1.299634	1.300366
00:00:00.503	1.311355	1.312821	1.309158
00:00:00.503	1.310623	1.328205	1.302564
00:00:00.503	1.320879	1.349451	1.306960
00:00:00.503	1.310623	1.367766	1.301832
00:00:00.503	1.309158	1.379487	1.300366
00:00:00.505	1.315018	1.361172	1.298168
00:00:00.505	1.314286	1.322344	1.302564
00:00:00.508	1.323077	1.328938	1.300366
00:00:00.508	1.323810	1.277656	1.296703
00:00:00.508	1.312821	1.228571	1.293773
00:00:00.508	1.312088	1.223443	1.303297
00:00:00.508	1.311355	1.228571	1.300366
00:00:00.508	1.306960	1.245421	1.301832
00:00:00.508	1.308425	1.276923	1.309890
00:00:00.508	1.297436	1.273260	1.298168
00:00:00.508	1.298168	1.279853	1.304762
00:00:00.508	1.310623	1.310623	1.312821
00:00:00.508	1.306960	1.322344	1.297436
00:00:00.508	1.309890	1.339194	1.307692
00:00:00.513	1.311355	1.338462	1.303297
00:00:00.513	1.308425	1.328938	1.290110
00:00:00.513	1.314286	1.333333	1.310623
00:00:00.513	1.312088	1.313553	1.292308
00:00:00.513	1.304762	1.301832	1.289377
00:00:00.513	1.315751	1.303297	1.300366
00:00:00.513	1.316484	1.302564	1.303297
00:00:00.546	1.302564	1.307692	1.296703
00:00:00.546	1.312088	1.334799	1.314286
00:00:00.546	1.306227	1.322344	1.310623
00:00:00.546	1.294505	1.315018	1.309158
00:00:00.546	1.300366	1.327473	1.310623
00:00:00.546	1.296703	1.331136	1.318681
00:00:00.546	1.305495	1.339194	1.315751
00:00:00.546	1.304762	1.298168	1.306960
00:00:00.546	1.308425	1.281319	1.299634
00:00:00.546	1.309890	1.279853	1.300366
00:00:00.547	1.315018	1.282051	1.300366
00:00:00.548	1.323810	1.255678	1.298901
00:00:00.548	1.316484	1.279853	1.302564
00:00:00.548	1.310623	1.306227	1.295238
00:00:00.548	1.306960	1.323810	1.287179
00:00:00.549	1.318681	1.318681	1.302564
00:00:00.549	1.311355	1.299634	1.299634
00:00:00.549	1.300366	1.290842	1.298901
00:00:00.550	1.306960	1.296703	1.306960
00:00:00.550	1.312088	1.323077	1.306227
00:00:00.550	1.305495	1.340659	1.314286
00:00:00.551	1.315751	1.346520	1.320147
00:00:00.551	1.301832	1.339194	1.315018
00:00:00.551	1.295971	1.324542	1.301832
00:00:00.552	1.316484	1.328938	1.309890
00:00:00.552	1.301832	1.297436	1.305495
00:00:00.552	1.303297	1.279853	1.306960
00:00:00.553	1.311355	1.268864	1.300366
00:00:00.553	1.313553	1.273993	1.298168
00:00:00.554	1.306227	1.289377	1.298901
00:00:00.554	1.318681	1.310623	1.299634
00:00:00.554	1.312088	1.323810	1.287179
00:00:00.556	1.319414	1.300366	1.305495
00:00:00.556	1.317216	1.290110	1.300366
00:00:00.556	1.308425	1.291575	1.298901
00:00:00.556	1.300366	1.295238	1.305495
00:00:00.556	1.305495	1.308425	1.306227
00:00:00.556	1.295971	1.301099	1.304762
00:00:00.557	1.313553	1.304029	1.318681
00:00:00.557	1.309158	1.288645	1.316484
00:00:00.557	1.304762	1.296703	1.308425
00:00:00.558	1.321612	1.335531	1.309158
00:00:00.558	1.317949	1.330403	1.307692
00:00:00.559	1.290110	1.294505	1.304762
00:00:00.559	1.291575	1.290110	1.294505
00:00:00.559	1.301099	1.298901	1.289377
00:00:00.560	1.317216	1.312821	1.298901
00:00:00.560	1.313553	1.312821	1.296703
00:00:00.560	1.312088	1.315018	1.296703
00:00:00.561	1.305495	1.300366	1.292308
