1782333926.0332422,1815
1782333926.0344498,1821
1782333926.0357592,1864
1782333926.035768,1867
1782333926.03705,1863
1782333926.0381498,1859
1782333926.03943,1847
1782333926.040753,1838
1782333926.040778,1843
1782333926.042092,1840
1782333926.043388,1831
1782333926.044755,1834
1782333926.044789,1847
1782333926.046216,1844
1782333926.0475242,1837
1782333926.0488021,1843
1782333926.048807,1845
1782333926.05009,1862
1782333926.0518458,1838
1782333926.0518541,1849
1782333926.053281,1855
1782333926.054558,1842
1782333926.055831,1864
1782333926.0558348,1838
1782333926.0571048,1827
1782333926.058385,1839
1782333926.0596879,1838
1782333926.0609689,1839
1782333926.060975,1844
1782333926.062258,1869
1782333926.063531,1858
1782333926.0648131,1856
1782333926.0648189,1860
1782333926.066099,1854
1782333926.067382,1860
1782333926.0686889,1871
1782333926.069969,1885
1782333926.0699751,1892
1782333926.071253,1885
1782333926.072533,1869
1782333926.073815,1880
1782333926.0738208,1877
1782333926.075098,1945
1782333926.076395,1807
1782333926.077672,1826
1782333926.078953,1836
1782333926.0789602,1867
1782333926.080241,1847
1782333926.0817301,1847
1782333926.083008,1860
1782333926.083012,1849
1782333926.08428,1826
1782333926.085352,1811
1782333926.0866492,1830
1782333926.086656,1841
1782333926.087939,1836
1782333926.087946,1818
1782333926.089229,1807
1782333926.0905118,1833
1782333926.091796,1850
1782333926.0918021,1844
1782333926.093072,1845
1782333926.094344,1855
1782333926.095623,1843
1782333926.096907,1853
1782333926.0969129,1857
1782333926.098193,1848
1782333926.0994759,1846
1782333926.100759,1831
1782333926.100765,1838
1782333926.102043,1871
1782333926.103324,1850
1782333926.1046069,1822
1782333926.10589,1825
1782333926.105896,1828
1782333926.1071749,1809
1782333926.108455,1812
1782333926.1097548,1826
1782333926.1097631,1826
1782333926.111444,1834
1782333926.112719,1835
1782333926.11273,1833
1782333926.1140459,1850
1782333926.115339,1850
1782333926.1166232,1831
1782333926.117898,1851
1782333926.117903,1868
1782333926.1191711,1870
1782333926.120451,1866
1782333926.1217248,1868
1782333926.121737,1864
1782333926.123018,1869
1782333926.124301,1901
1782333926.125582,1871
1782333926.126864,1828
1782333926.126871,1843
1782333926.128145,1848
1782333926.1294231,1883
1782333926.1307032,1866
1782333926.131985,1852
1782333926.1319911,1876
1782333926.1333299,1837
1782333926.134665,1839
1782333926.135983,1860
1782333926.135995,1865
1782333926.1372821,1849
1782333926.1384268,1860
1782333926.139755,1857
1782333926.139777,1815
1782333926.141108,1813
1782333926.142427,1828
1782333926.1436741,1834
1782333926.144983,1836
1782333926.144991,1832
1782333926.1462731,1838
1782333926.1475909,1839
1782333926.148888,1869
1782333926.148896,1859
1782333926.15017,1857
1782333926.1514509,1851
1782333926.1527328,1844
1782333926.1527429,1866
1782333926.154034,1846
1782333926.155309,1855
1782333926.1565819,1860
1782333926.1578639,1843
1782333926.157871,1855
1782333926.159148,1864
1782333926.1604302,1853
1782333926.1617122,1842
1782333926.163,1842
1782333926.163006,1856
1782333926.164284,1839
1782333926.1655629,1832
1782333926.166843,1811
1782333926.1668491,1822
1782333926.168133,1812
1782333926.169413,1816
1782333926.1706932,1826
1782333926.171974,1839
1782333926.1719801,1825
1782333926.173422,1828
1782333926.17471,1839
1782333926.1759832,1902
1782333926.175987,1809
1782333926.177268,1802
1782333926.178553,1826
1782333926.1798358,1844
1782333926.179842,1828
1782333926.181121,1845
1782333926.182401,1839
1782333926.183682,1860
1782333926.184979,1878
1782333926.1849852,1867
1782333926.186263,1871
1782333926.187545,1858
1782333926.188829,1856
1782333926.1888351,1835
1782333926.190113,1849
1782333926.191394,1830
1782333926.192666,1849
1782333926.193939,1837
1782333926.193944,1815
1782333926.1952178,1851
1782333926.1964989,1852
1782333926.197859,1836
1782333926.197879,1823
1782333926.1992059,1844
1782333926.200501,1851
1782333926.201781,1862
1782333926.201787,1835
1782333926.203063,1837
1782333926.2043562,1838
1782333926.205643,1860
1782333926.206953,1849
1782333926.206964,1869
1782333926.208266,1893
1782333926.208274,1879
1782333926.209561,1865
1782333926.2108428,1867
1782333926.210849,1848
1782333926.2121248,1851
1782333926.213404,1834
1782333926.214684,1829
1782333926.215963,1831
1782333926.215969,1833
1782333926.2173219,1828
1782333926.218542,1824
1782333926.21983,1838
1782333926.219836,1861
1782333926.2211132,1836
1782333926.222395,1828
1782333926.223714,1835
1782333926.223757,1917
1782333926.225041,1823
1782333926.226323,1826
1782333926.2276008,1839
1782333926.228876,1855
1782333926.228881,1850
1782333926.2301528,1861
1782333926.231447,1871
1782333926.232741,1871
1782333926.232762,1870
1782333926.2340648,1858
1782333926.235344,1851
1782333926.23662,1864
1782333926.237891,1860
1782333926.237895,1844
1782333926.239079,1834
1782333926.240397,1839
1782333926.241729,1822
1782333926.243045,1822
1782333926.2430542,1839
1782333926.244328,1848
1782333926.245634,1820
1782333926.2469409,1830
1782333926.2469518,1823
1782333926.24828,1845
1782333926.249619,1829
1782333926.250932,1822
1782333926.2509398,1851
1782333926.252013,1839
1782333926.2533062,1844
1782333926.254612,1848
1782333926.255938,1853
1782333926.255954,1842
1782333926.257288,1839
1782333926.258589,1839
1782333926.2598872,1815
1782333926.2598999,1830
1782333926.261211,1843
1782333926.2625139,1839
1782333926.2642071,1839
1782333926.264211,1855
1782333926.2654998,1839
1782333926.266784,1839
1782333926.26679,1839
1782333926.268068,1853
1782333926.269343,1822
1782333926.270633,1824
1782333926.271925,1837
1782333926.271934,1852
1782333926.2732558,1838
1782333926.2745652,1880
1782333926.2758532,1847
1782333926.275861,1834
1782333926.277142,1851
1782333926.2784262,1829
1782333926.279712,1834
1782333926.2810209,1836
1782333926.281031,1841
1782333926.2823281,1851
1782333926.283629,1846
1782333926.2849312,1833
1782333926.2849422,1811
1782333926.286237,1837
1782333926.2875361,1833
1782333926.288841,1854
1782333926.288851,1838
1782333926.290144,1835
1782333926.29143,1851
1782333926.292732,1866
1782333926.292778,1852
1782333926.2940779,1820
1782333926.296436,1836
1782333926.2964501,1828
1782333926.298676,1814
1782333926.298688,1825
1782333926.299965,1819
1782333926.2999701,1832
1782333926.301239,1849
1782333926.30251,1871
1782333926.3038049,1857
1782333926.303815,1853
1782333926.305113,1849
1782333926.3064141,1838
1782333926.307735,1826
1782333926.309062,1851
1782333926.3090692,1855
1782333926.310376,1836
1782333926.311678,1838
1782333926.3129861,1850
1782333926.312995,1875
1782333926.314102,1863
1782333926.315428,1842
1782333926.316737,1848
1782333926.316777,1858
1782333926.318092,1851
1782333926.319394,1854
1782333926.320687,1851
1782333926.322031,1849
1782333926.322043,1832
1782333926.32335,1838
1782333926.324656,1839
1782333926.3266718,1908
1782333926.3266828,1829
1782333926.329052,1843
1782333926.329062,1861
1782333926.3290648,1852
1782333926.330239,1863
1782333926.3315258,1844
1782333926.332833,1847
1782333926.332839,1839
1782333926.332841,1856
1782333926.3341272,1855
1782333926.335419,1851
1782333926.336725,1875
1782333926.3380501,1858
1782333926.3380601,1868
1782333926.339353,1851
1782333926.340662,1855
1782333926.3418062,1861
1782333926.341812,1850
1782333926.343115,1851
1782333926.3444202,1856
1782333926.345697,1850
1782333926.34699,1847
1782333926.346999,1850
1782333926.3482912,1868
1782333926.349591,1849
1782333926.3508868,1852
1782333926.3508968,1871
1782333926.35219,1864
1782333926.353488,1861
1782333926.354785,1858
1782333926.354796,1845
1782333926.356587,1845
1782333926.3589,1860
1782333926.358911,1871
1782333926.3589141,1857
1782333926.360192,1864
1782333926.361463,1848
1782333926.362744,1846
1782333926.36275,1847
1782333926.3640478,1845
1782333926.365335,1846
1782333926.3666282,1839
1782333926.367933,1836
1782333926.3679428,1848
1782333926.369235,1843
1782333926.3705332,1838
1782333926.371831,1812
1782333926.371843,1826
1782333926.372928,1812
1782333926.374249,1892
1782333926.375565,1775
1782333926.376867,1802
1782333926.376878,1832
1782333926.3781781,1834
1782333926.3794801,1837
1782333926.3807921,1826
1782333926.380804,1816
1782333926.382118,1817
1782333926.383425,1823
1782333926.384727,1831
1782333926.386703,1854
1782333926.3867142,1848
1782333926.388907,1826
1782333926.388916,1846
1782333926.388919,1846
1782333926.390225,1833
1782333926.39151,1828
1782333926.3927932,1843
1782333926.3928,1839
1782333926.394079,1831
1782333926.395374,1829
1782333926.396679,1826
1782333926.39799,1839
1782333926.397999,1837
1782333926.399292,1828
1782333926.400597,1846
1782333926.401881,1878
1782333926.401889,1868
1782333926.403213,1837
1782333926.404512,1830
1782333926.4058108,1853
1782333926.4058208,1866
1782333926.407145,1846
1782333926.4084558,1866
1782333926.409782,1888
1782333926.4097972,1867
1782333926.4111202,1858
1782333926.412419,1846
1782333926.413592,1853
1782333926.414912,1826
1782333926.414927,1855
1782333926.4169521,1845
1782333926.416963,1856
1782333926.419589,1871
1782333926.419595,1854
1782333926.420866,1850
1782333926.420871,1867
1782333926.421906,1848
1782333926.423197,1839
1782333926.424474,1865
1782333926.425781,1860
1782333926.4257898,1821
1782333926.4270852,1848
1782333926.428385,1860
1782333926.429688,1858
1782333926.430753,1847
1782333926.4307609,1852
1782333926.4320672,1833
1782333926.433381,1847
1782333926.4347048,1860
1782333926.436003,1848
1782333926.436013,1861
1782333926.437307,1848
1782333926.438602,1850
1782333926.439915,1831
1782333926.439929,1839
1782333926.4412658,1831
1782333926.4425678,1851
1782333926.443867,1855
1782333926.4438772,1845
1782333926.445169,1849
1782333926.446468,1870
1782333926.448241,1828
1782333926.4482539,1821
1782333926.4508858,1842
1782333926.4508958,1883
1782333926.450899,1863
1782333926.45218,1832
1782333926.453453,1836
1782333926.454734,1831
1782333926.454763,1828
1782333926.4560409,1797
1782333926.457345,1812
1782333926.457355,1858
1782333926.458515,1865
1782333926.459819,1855
1782333926.459831,1879
1782333926.461129,1874
1782333926.46243,1868
1782333926.463729,1832
1782333926.4650612,1836
1782333926.465069,1868
1782333926.466391,1874
1782333926.467716,1861
1782333926.469055,1837
1782333926.469066,1848
1782333926.470368,1854
1782333926.471682,1846
1782333926.472973,1829
1782333926.472988,1853
1782333926.4743428,1926
1782333926.475649,1834
1782333926.4769468,1828
1782333926.4769568,1844
1782333926.4785721,1859
1782333926.481259,1851
1782333926.481267,1826
1782333926.481269,1852
1782333926.4825752,1890
1782333926.483865,1866
1782333926.483872,1858
1782333926.485148,1853
1782333926.486421,1843
1782333926.487724,1829
1782333926.489036,1771
1782333926.489046,1798
1782333926.490357,1833
1782333926.491644,1835
1782333926.4929311,1830
1782333926.492938,1839
1782333926.49425,1842
1782333926.49555,1813
1782333926.496832,1786
1782333926.4968371,1811
1782333926.498112,1839
1782333926.499398,1849
1782333926.500685,1830
1782333926.5019698,1830
1782333926.501976,1858
1782333926.50327,1857
1782333926.504568,1802
1782333926.505864,1816
1782333926.5058718,1864
1782333926.508205,1846
1782333926.50827,1839
1782333926.510595,1848
1782333926.5106041,1853
1782333926.511908,1834
1782333926.511915,1797
1782333926.513193,1824
1782333926.514486,1867
1782333926.515789,1865
1782333926.515798,1869
1782333926.5170932,1882
1782333926.518392,1880
1782333926.519692,1864
1782333926.520998,1829
1782333926.521009,1836
1782333926.522315,1874
1782333926.523639,1871
1782333926.5249212,1902
1782333926.524927,1811
1782333926.526239,1825
1782333926.527563,1830
1782333926.528885,1825
1782333926.528897,1850
1782333926.530184,1862
1782333926.5314822,1878
1782333926.532771,1875
1782333926.532779,1858
1782333926.534059,1871
1782333926.535341,1862
1782333926.536621,1820
1782333926.537914,1797
1782333926.537924,1791
1782333926.53926,1830
1782333926.541908,1844
1782333926.541916,1823
1782333926.541918,1843
1782333926.543197,1844
1782333926.544477,1842
1782333926.545625,1805
1782333926.546939,1815
1782333926.546945,1864
1782333926.548224,1847
1782333926.549509,1837
1782333926.5507882,1828
1782333926.550794,1857
1782333926.552068,1875
1782333926.553366,1826
1782333926.554674,1854
1782333926.5559528,1894
1782333926.555959,1875
1782333926.55725,1866
1782333926.558534,1848
1782333926.559812,1866
1782333926.559818,1864
1782333926.561093,1822
1782333926.562371,1855
1782333926.563603,1890
1782333926.564895,1866
1782333926.564903,1857
1782333926.5661929,1855
1782333926.56747,1859
1782333926.568753,1862
1782333926.568761,1820
1782333926.570185,1839
1782333926.57159,1887
1782333926.572881,1881
1782333926.57289,1863
1782333926.574185,1866
1782333926.575489,1855
1782333926.576771,1820
1782333926.576778,1802
1782333926.578055,1835
1782333926.579356,1853
1782333926.580648,1839
1782333926.58194,1832
1782333926.58195,1838
1782333926.581953,1814
1782333926.583277,1834
1782333926.584564,1828
1782333926.585856,1816
1782333926.585865,1810
1782333926.587163,1833
1782333926.588463,1825
1782333926.589758,1842
1782333926.589768,1844
1782333926.591059,1834
1782333926.592344,1818
1782333926.5936372,1814
1782333926.594922,1834
1782333926.594929,1858
1782333926.596222,1849
1782333926.5975192,1828
1782333926.5988102,1832
1782333926.598819,1839
1782333926.600287,1850
1782333926.602485,1830
1782333926.602496,1849
1782333926.603796,1860
1782333926.6038039,1839
1782333926.605081,1833
1782333926.606386,1823
1782333926.6076748,1839
1782333926.60896,1839
1782333926.6089668,1810
1782333926.6102662,1832
1782333926.611572,1876
1782333926.612875,1862
1782333926.612886,1857
1782333926.614204,1871
1782333926.615514,1839
1782333926.616593,1839
1782333926.617773,1839
1782333926.617826,1842
1782333926.619136,1849
1782333926.620438,1844
1782333926.621749,1849
1782333926.621807,1834
1782333926.6229372,1848
1782333926.624256,1889
1782333926.6255722,1794
1782333926.626891,1814
1782333926.6269,1858
1782333926.6282182,1842
1782333926.630325,1828
1782333926.630334,1849
1782333926.63243,1854
1782333926.632444,1845
1782333926.6337762,1832
1782333926.633826,1853
1782333926.635137,1877
1782333926.636332,1855
1782333926.637627,1837
1782333926.638928,1834
1782333926.638937,1831
1782333926.64026,1831
1782333926.641539,1852
1782333926.642817,1838
1782333926.6428218,1843
1782333926.644107,1865
1782333926.645387,1854
1782333926.646658,1835
1782333926.647935,1835
1782333926.647941,1854
1782333926.649218,1810
1782333926.650499,1842
1782333926.651791,1860
1782333926.651797,1863
1782333926.653074,1861
1782333926.654357,1848
1782333926.655636,1862
1782333926.656916,1835
1782333926.656922,1838
1782333926.658199,1829
1782333926.6599848,1813
1782333926.6599932,1829
1782333926.661267,1842
1782333926.662542,1825
1782333926.6638138,1847
1782333926.663818,1880
1782333926.665094,1876
1782333926.6663759,1832
1782333926.667655,1832
1782333926.668929,1828
1782333926.6689332,1838
1782333926.670209,1822
1782333926.6714811,1835
1782333926.672756,1843
1782333926.6727612,1839
1782333926.6740422,1891
1782333926.675318,1794
1782333926.6766021,1813
1782333926.67788,1830
1782333926.6778848,1830
1782333926.6791549,1824
1782333926.680435,1816
1782333926.681719,1819
1782333926.6830258,1815
1782333926.683033,1818
1782333926.6843112,1846
1782333926.6855848,1865
1782333926.6868649,1863
1782333926.686871,1846
1782333926.68815,1845
1782333926.6894321,1849
1782333926.6907132,1830
1782333926.692428,1847
1782333926.6924329,1842
1782333926.6937542,1844
1782333926.693762,1863
1782333926.6950321,1845
1782333926.696309,1849
1782333926.6974132,1848
1782333926.698694,1849
1782333926.6999822,1842
1782333926.699989,1834
1782333926.701261,1843
1782333926.702535,1843
1782333926.7038069,1846
1782333926.7038112,1852
1782333926.7050939,1845
1782333926.706371,1832
1782333926.707644,1814
1782333926.707648,1826
1782333926.708915,1839
1782333926.710185,1848
1782333926.710189,1834
1782333926.7114592,1837
1782333926.712726,1839
1782333926.713993,1838
1782333926.713996,1836
1782333926.715262,1846
1782333926.7165282,1857
1782333926.7178009,1862
1782333926.717804,1862
1782333926.71907,1858
1782333926.720337,1867
1782333926.7218912,1831
1782333926.721895,1819
1782333926.7231622,1862
1782333926.72443,1879
1782333926.725698,1846
1782333926.726979,1860
1782333926.7269871,1866
1782333926.728266,1847
1782333926.729548,1836
1782333926.730829,1835
1782333926.730834,1869
1782333926.732113,1880
1782333926.733394,1892
1782333926.734676,1884
1782333926.735948,1876
1782333926.735952,1893
1782333926.737228,1885
1782333926.7385018,1842
1782333926.7397811,1848
1782333926.739787,1870
1782333926.7410629,1861
1782333926.742343,1844
1782333926.743623,1843
1782333926.744982,1842
1782333926.745001,1836
1782333926.746285,1839
1782333926.747403,1853
1782333926.748725,1853
1782333926.74876,1850
1782333926.7500448,1835
1782333926.751737,1814
1782333926.751768,1822
1782333926.753075,1832
1782333926.7543721,1821
1782333926.75566,1817
1782333926.756955,1821
1782333926.7569642,1848
1782333926.7582421,1857
1782333926.759516,1836
1782333926.760803,1855
1782333926.76081,1845
1782333926.76208,1836
1782333926.763351,1844
1782333926.764683,1856
1782333926.766015,1845
1782333926.766022,1839
1782333926.767327,1845
1782333926.768634,1846
1782333926.7699242,1852
1782333926.76993,1849
1782333926.771225,1842
1782333926.7725382,1839
1782333926.773847,1853
1782333926.773857,1903
1782333926.775157,1824
1782333926.776475,1832
1782333926.777757,1839
1782333926.777762,1853
1782333926.7790542,1829
1782333926.780372,1832
1782333926.782079,1856
1782333926.782086,1837
1782333926.783511,1834
1782333926.7847831,1863
1782333926.784788,1847
1782333926.786058,1836
1782333926.787338,1837
1782333926.788636,1843
1782333926.789932,1858
1782333926.789949,1854
1782333926.7912698,1858
1782333926.792591,1851
1782333926.7936819,1868
1782333926.794985,1870
1782333926.7949922,1831
1782333926.796284,1824
1782333926.7975879,1828
1782333926.798888,1817
1782333926.7989,1822
1782333926.80019,1839
1782333926.801491,1844
1782333926.80277,1827
1782333926.802774,1824
1782333926.804062,1829
1782333926.805367,1852
1782333926.806668,1844
1782333926.807969,1844
1782333926.80798,1858
1782333926.8092768,1869
1782333926.8105621,1850
1782333926.811875,1826
1782333926.811881,1833
1782333926.813333,1825
1782333926.814612,1852
1782333926.815901,1843
1782333926.8159091,1849
1782333926.817187,1835
1782333926.81851,1849
1782333926.8198211,1839
1782333926.819828,1837
1782333926.821122,1839
1782333926.8224351,1839
1782333926.823761,1856
1782333926.8237922,1885
1782333926.8251,1827
1782333926.826426,1852
1782333926.827714,1879
1782333926.8290381,1858
1782333926.82905,1877
1782333926.8303711,1866
1782333926.8317,1864
1782333926.833007,1860
1782333926.8330188,1871
1782333926.833021,1867
1782333926.8343208,1855
1782333926.8356109,1827
1782333926.83691,1877
1782333926.836923,1880
1782333926.838224,1860
1782333926.839543,1859
1782333926.8408651,1869
1782333926.840873,1863
1782333926.841989,1833
1782333926.8433,1823
1782333926.8445172,1842
1782333926.8463202,1853
1782333926.846328,1852
1782333926.847614,1834
1782333926.848901,1825
1782333926.848908,1810
1782333926.850187,1843
1782333926.851475,1788
1782333926.852793,1807
1782333926.852801,1843
1782333926.8540952,1847
1782333926.8553889,1834
1782333926.856718,1834
1782333926.8580348,1805
1782333926.858049,1825
1782333926.8593469,1811
1782333926.8604338,1807
1782333926.861749,1833
1782333926.8618088,1847
1782333926.863107,1859
1782333926.864409,1843
1782333926.865757,1870
1782333926.865778,1874
1782333926.867073,1837
1782333926.8683898,1832
1782333926.869699,1844
1782333926.871003,1846
1782333926.8710122,1829
1782333926.872316,1801
1782333926.874401,1844
1782333926.8744168,1864
1782333926.877398,1798
1782333926.87747,1807
1782333926.877474,1825
1782333926.878759,1839
1782333926.880032,1803
1782333926.880037,1816
1782333926.881315,1843
1782333926.8826072,1839
1782333926.883764,1862
1782333926.883785,1848
1782333926.88509,1859
1782333926.886366,1884
1782333926.8876579,1881
1782333926.8889441,1878
1782333926.888948,1866
1782333926.8902621,1870
1782333926.8916118,1846
1782333926.8929238,1807
1782333926.892931,1850
1782333926.894218,1896
1782333926.895521,1890
1782333926.8968341,1877
1782333926.896843,1886
1782333926.898153,1866
1782333926.8994648,1871
1782333926.900772,1819
1782333926.900835,1820
1782333926.902138,1893
1782333926.903338,1881
1782333926.9046888,1854
1782333926.907389,1884
1782333926.9074,1877
1782333926.907403,1854
1782333926.9086819,1796
1782333926.909958,1800
1782333926.909963,1854
1782333926.911239,1853
1782333926.912513,1849
1782333926.9136,1858
1782333926.9149141,1881
1782333926.914922,1868
1782333926.916242,1828
1782333926.917526,1830
1782333926.918711,1880
1782333926.920019,1884
1782333926.920031,1865
1782333926.921327,1839
1782333926.922632,1831
1782333926.923952,1821
1782333926.923959,1866
1782333926.9252741,1782
1782333926.926584,1822
1782333926.9278872,1855
1782333926.927896,1848
1782333926.92919,1819
1782333926.9304352,1842
1782333926.9317079,1839
1782333926.933063,1847
1782333926.933078,1837
1782333926.934704,1823
1782333926.937311,1844
1782333926.937321,1839
1782333926.937325,1839
1782333926.938604,1821
1782333926.9398909,1816
1782333926.939914,1818
1782333926.941206,1798
1782333926.9424992,1832
1782333926.9437802,1847
1782333926.943785,1856
1782333926.945089,1851
1782333926.9463942,1856
1782333926.947503,1861
1782333926.94879,1853
1782333926.948797,1819
1782333926.9500768,1833
1782333926.9513679,1887
1782333926.952651,1855
1782333926.95395,1860
1782333926.953961,1863
1782333926.9552379,1854
1782333926.956533,1851
1782333926.956542,1838
1782333926.9578319,1851
1782333926.9578419,1858
1782333926.959129,1860
1782333926.960421,1861
1782333926.961731,1846
1782333926.961789,1853
1782333926.962948,1839
1782333926.9648378,1819
1782333926.964849,1828
1782333926.968003,1839
1782333926.968013,1821
1782333926.968016,1820
1782333926.9693,1820
1782333926.970585,1814
1782333926.971863,1831
1782333926.9718678,1811
1782333926.973145,1908
1782333926.974459,1815
1782333926.97579,1845
1782333926.975797,1830
1782333926.9770749,1828
1782333926.978355,1837
1782333926.979646,1831
1782333926.98094,1824
1782333926.980947,1838
1782333926.982249,1836
1782333926.9835699,1878
1782333926.984691,1889
1782333926.98601,1863
1782333926.986022,1890
1782333926.98733,1862
1782333926.98863,1852
1782333926.9899468,1835
1782333926.98996,1845
1782333926.9912739,1855
1782333926.9925818,1876
1782333926.993684,1864
1782333926.994987,1846
1782333926.994998,1827
1782333926.997117,1832
1782333926.997129,1820
1782333927.000478,1838
1782333927.0004952,1843
1782333927.0004978,1839
1782333927.0018198,1838
1782333927.001834,1860
1782333927.003136,1839
1782333927.0044339,1828
1782333927.005725,1830
1782333927.005743,1845
1782333927.007027,1867
1782333927.008304,1863
1782333927.009603,1839
1782333927.010892,1839
1782333927.0108979,1875
1782333927.012193,1865
1782333927.013488,1833
1782333927.0146089,1848
1782333927.0159202,1854
1782333927.015927,1863
1782333927.017223,1851
1782333927.0185049,1834
1782333927.019802,1831
1782333927.019812,1822
1782333927.0211031,1810
1782333927.022399,1815
1782333927.0237231,1847
1782333927.025089,1862
1782333927.0251021,1818
1782333927.027554,1816
1782333927.027571,1831
1782333927.030015,1831
1782333927.030024,1832
1782333927.030026,1839
1782333927.031242,1861
1782333927.032535,1876
1782333927.033823,1876
1782333927.0338292,1859
1782333927.035114,1864
1782333927.036393,1850
1782333927.0376709,1851
1782333927.038948,1828
1782333927.038953,1839
1782333927.040242,1846
1782333927.0415308,1855
1782333927.042814,1863
1782333927.0428212,1862
1782333927.044121,1853
1782333927.045438,1848
1782333927.0467288,1849
1782333927.048005,1833
1782333927.048011,1828
1782333927.049292,1834
1782333927.050575,1835
1782333927.051849,1860
1782333927.051853,1864
1782333927.053131,1861
1782333927.05441,1846
1782333927.055976,1844
1782333927.055982,1871
1782333927.057686,1834
1782333927.058958,1838
1782333927.058961,1832
1782333927.0602381,1842
1782333927.0615098,1812
1782333927.062793,1812
1782333927.0627992,1826
1782333927.0640671,1850
1782333927.065335,1867
1782333927.066601,1850
1782333927.067868,1864
1782333927.067871,1867
1782333927.069136,1853
1782333927.0704021,1848
1782333927.071723,1847
1782333927.071764,1864
1782333927.0730371,1862
1782333927.074301,1913
1782333927.075567,1844
1782333927.0768352,1874
1782333927.0768378,1870
1782333927.0781069,1871
1782333927.079376,1860
1782333927.080641,1878
1782333927.0806432,1894
1782333927.0819058,1885
1782333927.081909,1875
1782333927.0831869,1855
1782333927.0844722,1857
1782333927.085747,1860
1782333927.085749,1832
1782333927.087162,1849
1782333927.0884311,1833
1782333927.0897422,1832
1782333927.089746,1827
1782333927.091027,1832
1782333927.0923169,1817
1782333927.093601,1817
1782333927.094889,1812
1782333927.094896,1823
1782333927.096182,1834
1782333927.097419,1816
1782333927.0987039,1821
1782333927.099987,1842
1782333927.099993,1821
1782333927.101068,1838
1782333927.102344,1823
1782333927.103609,1830
1782333927.10489,1850
1782333927.104896,1852
1782333927.106177,1844
1782333927.10746,1845
1782333927.1087549,1860
1782333927.108771,1844
1782333927.110076,1843
1782333927.1113641,1847
1782333927.112663,1852
1782333927.1139562,1846
1782333927.1139631,1847
1782333927.115926,1847
1782333927.1159291,1856
1782333927.117196,1862
1782333927.118491,1850
1782333927.11979,1855
1782333927.119797,1846
1782333927.121084,1842
1782333927.12237,1866
1782333927.1236532,1908
1782333927.124941,1801
1782333927.1249468,1816
1782333927.126071,1820
1782333927.127346,1831
1782333927.1284502,1855
1782333927.129735,1830
1782333927.131021,1847
1782333927.131027,1856
1782333927.132307,1864
1782333927.133594,1878
1782333927.134882,1878
1782333927.134889,1884
1782333927.136171,1881
1782333927.1372821,1886
1782333927.138554,1888
1782333927.1398232,1876
1782333927.139827,1875
1782333927.141105,1881
1782333927.142387,1870
1782333927.1436741,1860
1782333927.144966,1870
1782333927.144973,1871
1782333927.146262,1853
1782333927.1475468,1878
1782333927.149394,1861
1782333927.149397,1844
1782333927.150672,1819
1782333927.151957,1807
1782333927.151963,1823
1782333927.15325,1823
1782333927.154541,1838
1782333927.155743,1835
1782333927.157032,1847
1782333927.157038,1837
1782333927.1583202,1847
1782333927.159403,1825
1782333927.1606798,1806
1782333927.161967,1814
1782333927.161973,1806
1782333927.163245,1807
1782333927.164524,1827
1782333927.165806,1838
1782333927.165812,1822
1782333927.1670961,1827
1782333927.168389,1824
1782333927.169665,1845
1782333927.170951,1836
1782333927.170957,1844
1782333927.172239,1856
1782333927.173522,1879
1782333927.1748102,1887
1782333927.174817,1829
1782333927.1761,1849
1782333927.177566,1855
1782333927.178837,1855
1782333927.178841,1839
1782333927.180106,1850
1782333927.181376,1822
1782333927.1826591,1836
1782333927.183944,1832
1782333927.1839511,1832
1782333927.185235,1847
1782333927.18652,1863
1782333927.187808,1853
1782333927.187814,1866
1782333927.1890938,1892
1782333927.190376,1862
1782333927.191659,1853
1782333927.192945,1845
1782333927.192951,1859
1782333927.194226,1844
1782333927.195505,1832
1782333927.196794,1812
1782333927.1968,1827
1782333927.19808,1835
1782333927.199379,1823
1782333927.200665,1851
1782333927.201955,1839
1782333927.201961,1832
1782333927.203244,1846
1782333927.204531,1845
1782333927.205805,1839
1782333927.2058089,1834
1782333927.2058098,1824
1782333927.207089,1799
1782333927.209245,1790
1782333927.209249,1796
1782333927.210349,1800
1782333927.211627,1789
1782333927.212912,1810
1782333927.212919,1817
1782333927.214199,1797
1782333927.215483,1789
1782333927.216767,1807
1782333927.218057,1819
1782333927.2180638,1823
1782333927.219337,1836
1782333927.220619,1837
1782333927.221903,1837
1782333927.221909,1824
1782333927.2231889,1846
1782333927.2244742,1815
1782333927.225785,1858
1782333927.225791,1838
1782333927.2270012,1836
1782333927.228286,1850
1782333927.229572,1871
1782333927.230855,1894
1782333927.2308621,1857
1782333927.232141,1856
1782333927.233427,1860
1782333927.234716,1847
1782333927.236001,1871
1782333927.236007,1864
1782333927.2372859,1871
1782333927.23857,1867
1782333927.2401621,1834
1782333927.240167,1861
1782333927.2414348,1890
1782333927.242704,1865
1782333927.2439811,1846
1782333927.243988,1855
1782333927.245269,1822
1782333927.2465532,1813
1782333927.2478368,1818
1782333927.2478452,1846
1782333927.249124,1888
1782333927.2504058,1874
1782333927.251702,1863
1782333927.2529888,1850
1782333927.2529962,1845
1782333927.254275,1833
1782333927.255557,1805
1782333927.2568371,1830
1782333927.256843,1862
1782333927.258112,1870
1782333927.259383,1857
1782333927.260653,1847
1782333927.261931,1851
1782333927.261937,1852
1782333927.2632132,1870
1782333927.264493,1864
1782333927.265772,1867
1782333927.2657778,1885
1782333927.26705,1881
1782333927.2683752,1851
1782333927.2703009,1884
1782333927.2703161,1887
1782333927.271807,1829
1782333927.271819,1811
1782333927.273107,1850
1782333927.274404,1822
1782333927.275695,1816
1782333927.276993,1823
1782333927.277,1811
1782333927.2782762,1814
1782333927.279559,1798
1782333927.280851,1782
1782333927.280858,1790
1782333927.282153,1854
1782333927.283434,1844
1782333927.284727,1824
1782333927.28601,1845
1782333927.286016,1847
1782333927.287292,1847
1782333927.288574,1813
1782333927.289852,1823
1782333927.289858,1851
1782333927.291126,1852
1782333927.292394,1852
1782333927.293677,1858
1782333927.294961,1848
1782333927.2949681,1842
1782333927.296236,1823
1782333927.297504,1842
1782333927.299367,1892
1782333927.299372,1875
1782333927.300713,1860
1782333927.3020082,1852
1782333927.3020139,1835
1782333927.303283,1842
1782333927.304566,1806
1782333927.305839,1832
1782333927.3058429,1870
1782333927.3071191,1839
1782333927.3084018,1827
1782333927.309702,1832
1782333927.310977,1825
1782333927.310981,1832
1782333927.312258,1819
1782333927.313536,1831
1782333927.314811,1864
1782333927.314817,1862
1782333927.316085,1857
1782333927.3173509,1842
1782333927.318628,1862
1782333927.319904,1839
1782333927.3199081,1839
1782333927.3211782,1842
1782333927.3224478,1855
1782333927.3237178,1906
1782333927.3249862,1894
1782333927.3249888,1839
1782333927.326253,1846
1782333927.327519,1855
1782333927.328786,1849
1782333927.328789,1844
1782333927.331028,1820
1782333927.331032,1851
1782333927.331033,1849
1782333927.332299,1822
1782333927.333575,1831
1782333927.334859,1836
1782333927.3348649,1836
1782333927.3361468,1815
1782333927.337427,1830
1782333927.3387089,1859
1782333927.33999,1851
1782333927.3399959,1855
1782333927.341274,1875
1782333927.3425548,1853
1782333927.343749,1848
1782333927.343791,1825
1782333927.345061,1827
1782333927.346326,1842
1782333927.347602,1850
1782333927.3488839,1848
1782333927.34889,1857
1782333927.350166,1838
1782333927.351447,1838
1782333927.352724,1832
1782333927.35274,1830
1782333927.354024,1864
1782333927.355305,1853
1782333927.3565838,1848
1782333927.3578649,1866
1782333927.357871,1852
1782333927.3591511,1848
1782333927.361448,1839
1782333927.361452,1827
1782333927.362719,1856
1782333927.363987,1858
1782333927.36399,1859
1782333927.3652658,1874
1782333927.366546,1854
1782333927.367836,1858
1782333927.3678432,1848
1782333927.3691142,1866
1782333927.3703942,1862
1782333927.371677,1862
1782333927.372959,1859
1782333927.372965,1881
1782333927.374241,1821
1782333927.375521,1827
1782333927.376811,1839
1782333927.376817,1821
1782333927.378096,1831
1782333927.3793778,1850
1782333927.38066,1837
1782333927.38194,1826
1782333927.381946,1845
1782333927.3832161,1855
1782333927.384498,1848
1782333927.385771,1829
1782333927.385775,1855
1782333927.388327,1843
1782333927.388334,1864
1782333927.389611,1838
1782333927.39089,1822
1782333927.390896,1816
1782333927.392298,1826
1782333927.394176,1839
1782333927.394182,1821
1782333927.3954508,1866
1782333927.396725,1843
1782333927.3979971,1839
1782333927.398002,1855
1782333927.3992782,1837
1782333927.4005609,1847
1782333927.4018419,1824
1782333927.401849,1839
1782333927.4031281,1833
1782333927.4044108,1846
1782333927.4056928,1852
1782333927.406975,1857
1782333927.406982,1844
1782333927.408261,1865
1782333927.4095418,1857
1782333927.410815,1847
1782333927.410818,1879
1782333927.412097,1876
1782333927.413378,1871
1782333927.414659,1875
1782333927.4159412,1877
1782333927.415947,1853
1782333927.417225,1836
1782333927.418506,1844
1782333927.41979,1847
1782333927.419796,1845
1782333927.421074,1819
1782333927.423845,1825
1782333927.4238489,1874
1782333927.423851,1820
1782333927.425118,1803
1782333927.4263868,1828
1782333927.427656,1844
1782333927.428936,1838
1782333927.428942,1839
1782333927.430222,1838
1782333927.431506,1844
1782333927.432787,1834
1782333927.4327931,1837
1782333927.434071,1835
1782333927.435361,1839
1782333927.436646,1851
1782333927.437929,1834
1782333927.437936,1829
1782333927.4392152,1850
1782333927.440495,1847
1782333927.441779,1844
1782333927.441785,1807
1782333927.4430678,1816
1782333927.444434,1844
1782333927.445743,1839
1782333927.445781,1826
1782333927.446938,1820
1782333927.448281,1823
1782333927.449606,1820
1782333927.4509141,1837
1782333927.450926,1871
1782333927.452232,1871
1782333927.45381,1868
1782333927.453818,1874
1782333927.455127,1863
1782333927.4564018,1838
1782333927.456407,1845
1782333927.4576828,1824
1782333927.4589639,1851
1782333927.45897,1823
1782333927.46024,1838
1782333927.461518,1835
1782333927.462799,1855
1782333927.462805,1855
1782333927.464083,1852
1782333927.465363,1853
1782333927.4666429,1856
1782333927.468022,1861
1782333927.468042,1879
1782333927.4693708,1861
1782333927.470717,1870
1782333927.470747,1880
1782333927.47207,1897
1782333927.473392,1880
1782333927.4747012,1814
1782333927.476002,1854
1782333927.476018,1858
1782333927.4773152,1859
1782333927.4786172,1862
1782333927.479925,1855
1782333927.479936,1853
1782333927.4812422,1827
1782333927.483999,1854
1782333927.4840078,1853
1782333927.484009,1847
1782333927.485307,1851
1782333927.486596,1844
1782333927.487885,1838
1782333927.487892,1842
1782333927.489163,1867
1782333927.490478,1855
1782333927.491777,1846
1782333927.491792,1837
1782333927.493097,1854
1782333927.494405,1839
1782333927.49572,1837
1782333927.4970722,1859
1782333927.497081,1861
1782333927.498411,1845
1782333927.4997308,1850
1782333927.4997609,1852
1782333927.5010638,1853
1782333927.5023448,1844
1782333927.503669,1821
1782333927.50497,1852
1782333927.504981,1854
1782333927.506287,1843
1782333927.5075982,1839
1782333927.508895,1855
1782333927.508905,1855
1782333927.5102,1850
1782333927.512044,1855
1782333927.512259,1868
1782333927.514027,1871
1782333927.514035,1850
1782333927.515328,1855
1782333927.516618,1860
1782333927.517744,1850
1782333927.517774,1854
1782333927.519059,1871
1782333927.520353,1868
1782333927.521666,1852
1782333927.52299,1855
1782333927.522998,1885
1782333927.52431,1842
1782333927.525631,1855
1782333927.526935,1860
1782333927.5269482,1864
1782333927.5282822,1879
1782333927.529588,1849
1782333927.5309079,1823
1782333927.5309162,1833
1782333927.5322392,1845
1782333927.533566,1827
1782333927.53487,1839
1782333927.534882,1816
1782333927.53618,1836
1782333927.537461,1822
1782333927.538773,1812
1782333927.538794,1810
1782333927.540095,1839
1782333927.541406,1828
1782333927.542708,1806
1782333927.5440052,1815
1782333927.5440152,1837
1782333927.545443,1854
1782333927.547234,1839
1782333927.5472388,1818
1782333927.5485299,1821
1782333927.549819,1833
1782333927.549825,1833
1782333927.551112,1838
1782333927.552439,1860
1782333927.553757,1857
1782333927.553783,1870
1782333927.555083,1848
1782333927.5562549,1859
1782333927.5575838,1846
1782333927.558892,1839
1782333927.558903,1842
1782333927.560204,1850
1782333927.561534,1846
1782333927.56284,1854
1782333927.5628512,1836
1782333927.5641038,1836
1782333927.565417,1835
1782333927.566727,1830
1782333927.566752,1834
1782333927.568056,1828
1782333927.569344,1819
1782333927.570635,1834
1782333927.571948,1820
1782333927.571958,1813
1782333927.574507,1881
1782333927.574521,1807
1782333927.577742,1815
1782333927.577754,1833
1782333927.577757,1847
1782333927.5777972,1861
1782333927.5790951,1846
1782333927.580402,1833
1782333927.581706,1878
1782333927.583005,1849
1782333927.583015,1852
1782333927.583018,1849
1782333927.5843341,1838
1782333927.5856209,1837
1782333927.586915,1826
1782333927.586926,1842
1782333927.588232,1854
1782333927.589532,1832
1782333927.590854,1831
1782333927.590865,1831
1782333927.5921679,1855
1782333927.593473,1854
1782333927.5947971,1842
1782333927.594806,1860
1782333927.596108,1847
1782333927.597409,1849
1782333927.59872,1854
1782333927.60011,1839
1782333927.6001291,1830
1782333927.601465,1824
1782333927.602797,1823
1782333927.6028118,1833
1782333927.604851,1852
1782333927.604867,1842
1782333927.60817,1837
1782333927.608182,1819
1782333927.608185,1835
1782333927.609504,1848
1782333927.610817,1846
1782333927.610829,1818
1782333927.6121302,1819
1782333927.613465,1851
1782333927.614771,1845
1782333927.614781,1830
1782333927.616111,1827
1782333927.61741,1839
1782333927.618717,1826
1782333927.62,1800
1782333927.6200042,1834
1782333927.621558,1848
1782333927.622849,1858
1782333927.622856,1843
1782333927.62415,1813
1782333927.6255062,1824
1782333927.62683,1828
1782333927.626838,1797
1782333927.628052,1830
1782333927.629344,1869
1782333927.630645,1851
1782333927.631975,1855
1782333927.631993,1857
1782333927.634364,1848
1782333927.634379,1847
1782333927.637116,1845
1782333927.637126,1849
1782333927.6371279,1895
1782333927.638418,1887
1782333927.6397362,1888
1782333927.639765,1886
1782333927.641057,1894
1782333927.6423428,1883
1782333927.6435058,1839
1782333927.644808,1839
1782333927.6448169,1870
1782333927.6461298,1853
1782333927.6474571,1838
1782333927.648789,1837
1782333927.648798,1842
1782333927.650114,1851
1782333927.651399,1851
1782333927.652699,1851
1782333927.6540349,1871
1782333927.654042,1878
1782333927.65534,1851
1782333927.656634,1844
1782333927.657967,1853
1782333927.657978,1855
1782333927.6592839,1818
1782333927.660595,1815
1782333927.661901,1849
1782333927.661912,1861
1782333927.664525,1832
1782333927.6645372,1803
1782333927.667991,1807
1782333927.6680079,1824
1782333927.66801,1857
1782333927.668015,1830
1782333927.669311,1842
1782333927.67061,1869
1782333927.6718998,1865
1782333927.6719072,1860
1782333927.6732001,1884
1782333927.674519,1823
1782333927.675599,1859
1782333927.676894,1839
1782333927.6769018,1861
1782333927.678178,1852
1782333927.679459,1823
1782333927.680768,1834
1782333927.680775,1818
1782333927.6820931,1807
1782333927.68341,1830
1782333927.68473,1802
1782333927.684769,1843
1782333927.686094,1860
1782333927.6873841,1853
1782333927.688681,1839
1782333927.690018,1859
1782333927.690036,1858
1782333927.691398,1836
1782333927.6927161,1822
1782333927.6940281,1822
1782333927.69404,1859
1782333927.695345,1836
1782333927.697749,1829
1782333927.697763,1825
1782333927.6978,1839
1782333927.701536,1846
1782333927.701547,1843
1782333927.70155,1855
1782333927.702836,1880
1782333927.702842,1847
1782333927.704136,1839
1782333927.705442,1851
1782333927.706748,1835
1782333927.7067678,1822
1782333927.7080598,1813
1782333927.709358,1829
1782333927.7107022,1830
1782333927.710712,1845
1782333927.712003,1861
1782333927.712008,1859
1782333927.713312,1861
1782333927.714626,1864
1782333927.715942,1853
1782333927.71595,1844
1782333927.71727,1835
1782333927.71857,1852
1782333927.719856,1860
1782333927.719862,1863
1782333927.7211561,1850
1782333927.722464,1887
1782333927.7238028,1830
1782333927.7238138,1821
1782333927.726408,1851
1782333927.7264159,1845
1782333927.728439,1846
1782333927.728446,1849
1782333927.729762,1842
1782333927.729791,1835
1782333927.731083,1827
1782333927.732385,1823
1782333927.733494,1831
1782333927.734805,1827
1782333927.734813,1814
1782333927.73608,1822
1782333927.73735,1844
1782333927.738642,1839
1782333927.739973,1853
1782333927.7399821,1848
1782333927.7413151,1861
1782333927.742636,1865
1782333927.743948,1846
1782333927.743955,1841
1782333927.74524,1826
1782333927.746541,1838
1782333927.747851,1845
1782333927.74786,1843
1782333927.749203,1852
1782333927.75054,1865
1782333927.75184,1864
1782333927.751849,1864
1782333927.753054,1845
1782333927.7543502,1841
1782333927.7556548,1837
1782333927.757498,1821
1782333927.7575119,1822
1782333927.7607622,1842
1782333927.760771,1855
1782333927.7607732,1855
1782333927.7607749,1855
1782333927.7620711,1848
1782333927.763181,1842
1782333927.76448,1842
1782333927.7657769,1838
1782333927.765785,1843
1782333927.7670841,1824
1782333927.7683809,1830
1782333927.769678,1832
1782333927.770989,1844
1782333927.770998,1832
1782333927.77229,1875
1782333927.773636,1865
1782333927.774986,1819
1782333927.775003,1833
1782333927.776094,1837
1782333927.777399,1846
1782333927.77868,1858
1782333927.77997,1859
1782333927.77998,1848
1782333927.781277,1847
1782333927.782604,1864
1782333927.783915,1854
1782333927.783926,1859
1782333927.785248,1850
1782333927.786719,1858
1782333927.787246,1871
1782333927.789844,1871
1782333927.789854,1854
1782333927.789856,1866
1782333927.791148,1865
1782333927.7924328,1866
1782333927.793735,1860
1782333927.793761,1870
1782333927.7950468,1868
1782333927.79634,1853
1782333927.7976692,1839
1782333927.798989,1854
1782333927.798997,1867
1782333927.800338,1874
1782333927.801654,1850
1782333927.802977,1850
1782333927.802985,1832
1782333927.804277,1837
1782333927.805578,1836
1782333927.806908,1825
1782333927.806915,1833
1782333927.808224,1842
1782333927.8095412,1881
1782333927.810837,1868
1782333927.810844,1862
1782333927.812137,1843
1782333927.813447,1827
1782333927.814595,1839
1782333927.816371,1857
1782333927.816384,1844
1782333927.819448,1838
1782333927.819456,1843
1782333927.819458,1839
1782333927.8207319,1847
1782333927.8207371,1855
1782333927.821886,1864
1782333927.823169,1915
1782333927.8244538,1853
1782333927.8257651,1846
1782333927.825788,1853
1782333927.827084,1831
1782333927.828368,1839
1782333927.8296452,1836
1782333927.8309429,1836
1782333927.830955,1839
1782333927.8322618,1839
1782333927.83358,1821
1782333927.834871,1830
1782333927.8348758,1819
1782333927.836169,1826
1782333927.837449,1839
1782333927.838767,1835
1782333927.8387752,1854
1782333927.838778,1868
1782333927.840087,1864
1782333927.841416,1837
1782333927.842747,1843
1782333927.842816,1828
1782333927.844116,1842
1782333927.8454158,1839
1782333927.846715,1829
1782333927.8489301,1836
1782333927.848984,1816
1782333927.848991,1812
1782333927.852534,1822
1782333927.8525429,1830
1782333927.852545,1821
1782333927.8538492,1810
1782333927.8538592,1834
1782333927.855167,1848
1782333927.856504,1843
1782333927.857813,1842
1782333927.857824,1854
1782333927.859134,1855
1782333927.860432,1835
1782333927.8616478,1828
1782333927.862954,1852
1782333927.862965,1817
1782333927.864258,1819
1782333927.8655732,1807
1782333927.866901,1833
1782333927.866913,1830
1782333927.868093,1835
1782333927.869385,1846
1782333927.87067,1859
1782333927.871959,1871
1782333927.871967,1927
1782333927.873269,1829
1782333927.8745558,1860
1782333927.87584,1871
1782333927.8758469,1852
1782333927.877132,1818
1782333927.878908,1811
1782333927.878914,1845
1782333927.8812768,1854
1782333927.8812852,1839
1782333927.882578,1846
1782333927.883859,1858
1782333927.883865,1839
1782333927.8851461,1849
1782333927.886427,1844
1782333927.887701,1847
1782333927.8889651,1858
1782333927.88897,1857
1782333927.890263,1844
1782333927.891597,1853
1782333927.892697,1851
1782333927.894014,1857
1782333927.894024,1852
1782333927.8966029,1852
1782333927.8966138,1845
1782333927.8979032,1860
1782333927.897909,1848
1782333927.8991969,1854
1782333927.900478,1858
1782333927.9017541,1839
1782333927.90176,1839
1782333927.903033,1846
1782333927.904309,1839
1782333927.905587,1828
1782333927.9068758,1823
1782333927.906883,1838
1782333927.9084249,1834
1782333927.910927,1837
1782333927.910935,1835
1782333927.910937,1850
1782333927.912218,1854
1782333927.9135091,1870
1782333927.914805,1866
1782333927.914813,1860
1782333927.916106,1857
1782333927.9173918,1856
1782333927.9186702,1832
1782333927.9198122,1835
1782333927.919818,1854
1782333927.921091,1854
1782333927.9223669,1886
1782333927.923698,1871
1782333927.9247859,1845
1782333927.9248152,1848
1782333927.926122,1839
1782333927.927425,1844
1782333927.928757,1868
1782333927.928782,1854
1782333927.9300768,1843
1782333927.931381,1850
1782333927.9326952,1863
1782333927.9339972,1852
1782333927.934009,1830
1782333927.935306,1848
1782333927.936584,1863
1782333927.937883,1871
1782333927.9378939,1855
1782333927.940185,1839
1782333927.940199,1855
1782333927.9428558,1858
1782333927.942863,1818
1782333927.9428658,1810
1782333927.944154,1814
1782333927.94543,1822
1782333927.946707,1810
1782333927.948006,1836
1782333927.948012,1837
1782333927.949313,1819
1782333927.950618,1797
1782333927.951924,1794
1782333927.951936,1791
1782333927.95321,1822
1782333927.9545019,1839
1782333927.955803,1831
1782333927.9558132,1845
1782333927.957112,1837
1782333927.958414,1825
1782333927.9597042,1831
1782333927.9610062,1837
1782333927.961013,1862
1782333927.962286,1864
1782333927.963563,1876
1782333927.96488,1855
1782333927.964892,1842
1782333927.966215,1832
1782333927.966227,1814
1782333927.967554,1807
1782333927.9688718,1848
1782333927.9688802,1838
1782333927.97022,1836
1782333927.973428,1861
1782333927.973439,1897
1782333927.97345,1839
1782333927.97475,1836
1782333927.974758,1847
1782333927.9760509,1863
1782333927.9773319,1866
1782333927.978613,1839
1782333927.979912,1843
1782333927.979923,1830
1782333927.981245,1832
1782333927.982548,1811
1782333927.9838321,1812
1782333927.983839,1857
1782333927.9851189,1849
1782333927.986413,1839
1782333927.9877162,1852
1782333927.9890401,1867
1782333927.9890509,1871
1782333927.990346,1853
1782333927.991637,1848
1782333927.99294,1902
1782333927.99295,1899
1782333927.994269,1885
1782333927.9955761,1871
1782333927.9968798,1870
1782333927.996889,1864
1782333927.998194,1832
1782333927.999506,1834
1782333928.001301,1826
1782333928.001308,1860
1782333928.005003,1852
1782333928.005009,1839
1782333928.0050108,1836
1782333928.005013,1825
1782333928.006233,1810
1782333928.007524,1814
1782333928.008801,1836
1782333928.008806,1852
1782333928.0100758,1826
1782333928.011368,1837
1782333928.01267,1847
1782333928.013972,1862
1782333928.013983,1836
1782333928.0152938,1829
1782333928.016612,1832
1782333928.017896,1837
1782333928.017901,1852
1782333928.019192,1845
1782333928.0204859,1849
1782333928.021782,1841
1782333928.021792,1882
1782333928.023089,1800
1782333928.024395,1822
1782333928.0257,1850
1782333928.027,1858
1782333928.02701,1836
1782333928.0283031,1846
1782333928.029602,1845
1782333928.031991,1859
1782333928.032018,1858
1782333928.0320241,1855
1782333928.035512,1850
1782333928.035518,1864
1782333928.03552,1866
1782333928.0367959,1857
1782333928.036801,1838
1782333928.03807,1867
1782333928.0393028,1890
1782333928.04058,1871
1782333928.041878,1875
1782333928.041891,1880
1782333928.043186,1871
1782333928.044464,1852
1782333928.0457711,1861
1782333928.045793,1838
1782333928.047063,1829
1782333928.048342,1846
1782333928.0496562,1845
1782333928.050953,1852
1782333928.050965,1850
1782333928.0522602,1855
1782333928.0535429,1837
1782333928.054838,1833
1782333928.05485,1836
1782333928.056169,1839
1782333928.057479,1849
1782333928.058789,1846
1782333928.0587971,1846
1782333928.060528,1812
1782333928.063534,1823
1782333928.0635421,1823
1782333928.063545,1804
1782333928.064833,1816
1782333928.064842,1807
1782333928.06611,1830
1782333928.067392,1817
1782333928.0686789,1847
1782333928.0699708,1836
1782333928.069976,1843
1782333928.071276,1850
1782333928.07258,1879
1782333928.073884,1839
1782333928.0738912,1821
1782333928.075217,1816
1782333928.076543,1844
1782333928.077858,1842
1782333928.077868,1848
1782333928.079181,1850
1782333928.080488,1845
1782333928.081805,1834
1782333928.081812,1847
1782333928.083113,1830
1782333928.084415,1829
1782333928.085702,1821
1782333928.086998,1839
1782333928.087009,1851
1782333928.0883121,1824
1782333928.089634,1824
1782333928.0909388,1878
1782333928.090948,1886
1782333928.092544,1881
1782333928.095902,1860
1782333928.095909,1866
1782333928.095912,1871
1782333928.095914,1862
1782333928.095915,1868
1782333928.0971892,1885
1782333928.0984828,1880
1782333928.099766,1850
1782333928.099772,1833
1782333928.1010509,1852
1782333928.102326,1855
1782333928.10362,1855
1782333928.104924,1851
1782333928.104935,1867
1782333928.1061308,1850
1782333928.107421,1829
1782333928.108727,1835
1782333928.110064,1854
1782333928.110073,1876
1782333928.111347,1839
1782333928.112638,1835
1782333928.1139379,1871
1782333928.1139479,1854
1782333928.115246,1835
1782333928.1165419,1807
1782333928.117841,1826
1782333928.1178508,1822
1782333928.119144,1816
1782333928.1204422,1810
1782333928.121739,1835
1782333928.121797,1884
1782333928.1237981,1817
1782333928.123807,1815
1782333928.126786,1847
1782333928.126792,1861
1782333928.126794,1862
1782333928.1279922,1851
1782333928.1292632,1864
1782333928.130539,1871
1782333928.131825,1839
1782333928.131831,1825
1782333928.133151,1839
1782333928.1344562,1815
1782333928.1355479,1836
1782333928.136823,1832
1782333928.136828,1831
1782333928.138121,1851
1782333928.139432,1854
1782333928.1407669,1833
1782333928.140796,1862
1782333928.142097,1842
1782333928.1433852,1857
1782333928.144664,1842
1782333928.1459641,1829
1782333928.145973,1851
1782333928.147284,1855
1782333928.148597,1860
1782333928.149902,1839
1782333928.149913,1847
1782333928.152983,1868
1782333928.152995,1854
1782333928.1529999,1854
1782333928.156485,1862
1782333928.156492,1847
1782333928.156501,1860
1782333928.1577768,1858
1782333928.157783,1865
1782333928.159053,1853
1782333928.1603231,1847
1782333928.1615949,1846
1782333928.162863,1859
1782333928.1628668,1858
1782333928.164157,1871
1782333928.1654642,1852
1782333928.1667788,1862
1782333928.166786,1866
1782333928.1680598,1856
1782333928.1693308,1829
1782333928.1706188,1835
1782333928.171923,1862
1782333928.171934,1877
1782333928.173227,1783
1782333928.174525,1807
1782333928.175824,1834
1782333928.175833,1856
1782333928.177109,1850
1782333928.1784298,1843
1782333928.179743,1855
1782333928.179786,1846
1782333928.1811042,1827
1782333928.183341,1828
1782333928.1833541,1813
1782333928.1866062,1827
1782333928.186613,1820
1782333928.1866162,1822
1782333928.1878898,1833
1782333928.187895,1818
1782333928.189065,1812
1782333928.1903481,1823
1782333928.191631,1810
1782333928.192718,1811
1782333928.1927402,1814
1782333928.194016,1826
1782333928.195307,1855
1782333928.196605,1847
1782333928.1979342,1853
1782333928.197942,1856
1782333928.199244,1861
1782333928.2005608,1838
1782333928.2018628,1864
1782333928.201874,1855
1782333928.203149,1870
1782333928.20444,1852
1782333928.2057679,1855
1782333928.205796,1860
1782333928.2071161,1847
1782333928.2083972,1839
1782333928.209677,1834
1782333928.210954,1848
1782333928.2109592,1860
1782333928.212471,1853
1782333928.215741,1851
1782333928.215749,1836
1782333928.215752,1850
1782333928.216009,1876
1782333928.2172852,1858
1782333928.218561,1861
1782333928.219848,1862
1782333928.219855,1836
1782333928.221191,1844
1782333928.222521,1886
1782333928.2238421,1866
1782333928.223849,1846
1782333928.223851,1868
1782333928.2251751,1862
1782333928.2264771,1871
1782333928.22776,1846
1782333928.227765,1842
1782333928.2287948,1864
1782333928.2300959,1838
1782333928.2312691,1867
1782333928.232556,1849
1782333928.233856,1846
1782333928.233867,1842
1782333928.2351649,1832
1782333928.2364511,1850
1782333928.237746,1857
1782333928.237812,1836
1782333928.239136,1814
1782333928.240449,1824
1782333928.241763,1830
1782333928.241824,1836
1782333928.2445388,1846
1782333928.244551,1847
1782333928.2477481,1846
1782333928.247756,1838
1782333928.2477582,1851
1782333928.2477849,1851
1782333928.2490659,1830
1782333928.25034,1853
1782333928.2516239,1859
1782333928.252934,1822
1782333928.2529438,1809
1782333928.254237,1824
1782333928.25554,1821
1782333928.256862,1816
1782333928.256869,1804
1782333928.258166,1844
1782333928.259478,1851
1782333928.260777,1849
1782333928.260788,1871
1782333928.262086,1839
1782333928.263396,1845
1782333928.264568,1835
1782333928.265873,1811
1782333928.265882,1848
1782333928.2671769,1900
1782333928.268488,1860
1782333928.2697868,1867
1782333928.269797,1876
1782333928.271101,1866
1782333928.2724009,1886
1782333928.274981,1807
1782333928.274993,1824
1782333928.274997,1854
1782333928.278538,1831
1782333928.2785459,1842
1782333928.278548,1850
1782333928.279823,1839
1782333928.279829,1850
1782333928.2811131,1816
1782333928.282316,1820
1782333928.283592,1835
1782333928.284897,1865
1782333928.284914,1852
1782333928.28621,1828
1782333928.287508,1821
1782333928.2885718,1821
1782333928.289887,1791
1782333928.2898922,1791
1782333928.291201,1816
1782333928.292497,1866
1782333928.2938051,1855
1782333928.293816,1829
1782333928.29509,1862
1782333928.296362,1878
1782333928.297654,1876
1782333928.298969,1863
1782333928.298976,1879
1782333928.30025,1891
1782333928.301546,1877
1782333928.302867,1866
1782333928.302876,1868
1782333928.304308,1868
1782333928.307714,1871
1782333928.307723,1839
1782333928.3077261,1847
1782333928.307761,1875
1782333928.309037,1847
1782333928.310316,1869
1782333928.311599,1848
1782333928.312876,1845
1782333928.312881,1845
1782333928.314176,1824
1782333928.315488,1829
1782333928.3168142,1879
1782333928.316821,1867
1782333928.318068,1878
1782333928.31934,1859
1782333928.320637,1871
1782333928.32194,1864
1782333928.321951,1886
1782333928.3232682,1802
1782333928.324556,1854
1782333928.325863,1859
1782333928.3258739,1864
1782333928.327193,1834
1782333928.3284721,1853
1782333928.3297548,1854
1782333928.329761,1817
1782333928.33107,1832
1782333928.332383,1871
1782333928.334614,1839
1782333928.334628,1850
1782333928.338513,1859
1782333928.33852,1848
1782333928.3385222,1851
1782333928.3385239,1831
1782333928.339811,1826
1782333928.339825,1867
1782333928.34112,1878
1782333928.342392,1866
1782333928.3437052,1832
1782333928.3449879,1835
1782333928.344993,1827
1782333928.346283,1837
1782333928.347404,1827
1782333928.3487182,1824
1782333928.350077,1836
1782333928.350084,1828
1782333928.351398,1821
1782333928.35141,1826
1782333928.352726,1832
1782333928.3527439,1816
1782333928.3540401,1810
1782333928.3553438,1823
1782333928.356599,1828
1782333928.357905,1823
1782333928.357915,1827
1782333928.359221,1839
1782333928.360532,1867
1782333928.3618329,1845
1782333928.361844,1834
1782333928.363172,1836
1782333928.365542,1860
1782333928.36555,1849
1782333928.368596,1862
1782333928.368602,1857
1782333928.368604,1845
1782333928.369876,1818
1782333928.36988,1823
1782333928.371149,1879
1782333928.372424,1847
1782333928.373728,1838
1782333928.375067,1829
1782333928.375072,1818
1782333928.376348,1834
1782333928.377645,1844
1782333928.3789499,1828
1782333928.3789608,1826
1782333928.3802571,1878
1782333928.381566,1854
1782333928.382881,1832
1782333928.382889,1842
1782333928.384209,1825
1782333928.3853061,1827
1782333928.386602,1834
1782333928.3878999,1821
1782333928.3879108,1829
1782333928.3892071,1848
1782333928.39052,1867
1782333928.391829,1850
1782333928.39184,1861
1782333928.3931499,1863
1782333928.394453,1863
1782333928.3974888,1849
1782333928.3974998,1866
1782333928.397505,1867
1782333928.4007528,1855
1782333928.400759,1854
1782333928.4007611,1847
1782333928.4007628,1860
1782333928.402037,1852
1782333928.404581,1857
1782333928.404588,1867
1782333928.405868,1886
1782333928.405874,1850
1782333928.40717,1847
1782333928.408478,1882
1782333928.409784,1867
1782333928.409796,1850
1782333928.411092,1852
1782333928.412392,1855
1782333928.4137118,1849
1782333928.415283,1856
1782333928.4152908,1850
1782333928.416595,1870
1782333928.4178948,1855
1782333928.4179032,1862
1782333928.4191968,1854
1782333928.4204931,1832
1782333928.421788,1833
1782333928.421799,1877
1782333928.423142,1819
1782333928.4244611,1837
1782333928.427066,1832
1782333928.427079,1825
1782333928.427084,1814
1782333928.4308422,1819
1782333928.430848,1810
1782333928.430851,1817
1782333928.4308531,1832
1782333928.432134,1845
1782333928.4334111,1837
1782333928.4346838,1836
1782333928.4359539,1839
1782333928.435958,1839
1782333928.437247,1851
1782333928.438574,1844
1782333928.4398878,1832
1782333928.439898,1849
1782333928.441206,1847
1782333928.442508,1867
1782333928.443809,1844
1782333928.44382,1828
1782333928.445123,1837
1782333928.446424,1830
1782333928.4477282,1828
1782333928.447753,1837
1782333928.449047,1832
1782333928.450349,1825
1782333928.4516559,1824
1782333928.452957,1822
1782333928.452967,1826
1782333928.454262,1823
1782333928.456955,1831
1782333928.4569669,1829
1782333928.457025,1842
1782333928.4603982,1871
1782333928.460407,1866
1782333928.4604092,1864
1782333928.461685,1877
1782333928.462958,1885
1782333928.462964,1839
1782333928.464258,1853
1782333928.465587,1861
1782333928.466908,1852
1782333928.4669151,1864
1782333928.4682372,1839
1782333928.469545,1829
1782333928.470887,1839
1782333928.4708962,1839
1782333928.472228,1878
1782333928.473564,1807
1782333928.474883,1822
1782333928.474895,1846
1782333928.476197,1851
1782333928.4774988,1854
1782333928.478783,1847
1782333928.478791,1862
1782333928.478794,1848
1782333928.480078,1853
1782333928.481364,1839
1782333928.4826539,1827
1782333928.4839349,1838
1782333928.483941,1837
1782333928.485215,1845
1782333928.4872231,1846
1782333928.487231,1830
1782333928.4902961,1828
1782333928.490308,1818
1782333928.49031,1825
1782333928.491601,1804
1782333928.492895,1807
1782333928.492905,1824
1782333928.4942331,1828
1782333928.495517,1832
1782333928.49679,1839
1782333928.4967942,1861
1782333928.49808,1843
1782333928.499359,1855
1782333928.500643,1859
1782333928.501921,1874
1782333928.501927,1860
1782333928.503208,1834
1782333928.504482,1847
1782333928.505752,1864
1782333928.505756,1858
1782333928.5070431,1832
1782333928.508203,1846
1782333928.509511,1866
1782333928.510815,1854
1782333928.510825,1846
1782333928.5121229,1839
1782333928.513418,1848
1782333928.515646,1834
1782333928.5156538,1833
1782333928.5184581,1839
1782333928.5184672,1835
1782333928.518469,1830
1782333928.519763,1834
1782333928.5197692,1826
1782333928.521046,1875
1782333928.522325,1804
1782333928.523607,1802
1782333928.524888,1802
1782333928.524895,1810
1782333928.5261781,1822
1782333928.52746,1843
1782333928.5287402,1860
1782333928.528746,1870
1782333928.5300171,1874
1782333928.531296,1862
1782333928.532588,1839
1782333928.533885,1831
1782333928.5338922,1849
1782333928.53517,1868
1782333928.536455,1851
1782333928.537743,1868
1782333928.53775,1846
1782333928.539061,1839
1782333928.54038,1824
1782333928.541692,1834
1782333928.54299,1860
1782333928.542999,1852
1782333928.5442939,1868
1782333928.545575,1855
1782333928.5468721,1851
1782333928.54688,1823
1782333928.548695,1852
1782333928.551886,1876
1782333928.551892,1878
1782333928.551894,1863
1782333928.551896,1855
1782333928.553167,1845
1782333928.55444,1859
1782333928.55553,1839
1782333928.556811,1834
1782333928.5568159,1845
1782333928.558122,1863
1782333928.5594082,1868
1782333928.560731,1836
1782333928.56075,1832
1782333928.562048,1839
1782333928.5633512,1826
1782333928.564586,1827
1782333928.565896,1816
1782333928.5659049,1839
1782333928.567219,1845
1782333928.568518,1836
1782333928.56982,1823
1782333928.5698318,1832
1782333928.571127,1848
1782333928.572424,1881
1782333928.573728,1836
1782333928.575047,1842
1782333928.5750551,1864
1782333928.576349,1853
1782333928.578505,1832
1782333928.578517,1829
1782333928.5798762,1854
1782333928.579883,1834
1782333928.582714,1817
1782333928.5827231,1830
1782333928.582738,1855
1782333928.584009,1838
1782333928.58528,1837
1782333928.586557,1853
1782333928.587859,1839
1782333928.587871,1836
1782333928.588922,1836
1782333928.5902138,1835
1782333928.591499,1870
1782333928.592779,1854
1782333928.592785,1865
1782333928.5940852,1866
1782333928.595393,1848
1782333928.596672,1850
1782333928.597993,1807
1782333928.598,1823
1782333928.599311,1889
1782333928.600615,1871
1782333928.601921,1869
1782333928.601932,1863
1782333928.6032279,1842
1782333928.604531,1853
1782333928.605837,1826
1782333928.605849,1848
1782333928.605851,1866
1782333928.607352,1855
1782333928.6100612,1848
1782333928.610066,1829
1782333928.610068,1829
1782333928.6113439,1828
1782333928.6126132,1783
1782333928.613887,1796
1782333928.613892,1874
1782333928.6151628,1859
1782333928.61646,1862
1782333928.617774,1848
1782333928.617811,1842
1782333928.619117,1851
1782333928.6204212,1826
1782333928.62175,1873
1782333928.621779,1847
1782333928.623056,1839
1782333928.624362,1856
1782333928.625675,1854
1782333928.626976,1851
1782333928.626988,1833
1782333928.628298,1846
1782333928.6296031,1827
1782333928.630734,1844
1782333928.630741,1848
1782333928.6320472,1854
1782333928.63335,1825
1782333928.63467,1846
1782333928.635967,1851
1782333928.635978,1833
1782333928.637299,1825
1782333928.638587,1823
1782333928.641548,1862
1782333928.6415622,1846
1782333928.641567,1815
1782333928.644875,1828
1782333928.6448798,1855
1782333928.644883,1850
1782333928.6448839,1852
1782333928.646157,1860
1782333928.6474361,1869
1782333928.648718,1848
1782333928.648746,1852
1782333928.6499891,1868
1782333928.651285,1878
1782333928.652589,1860
1782333928.653918,1815
1782333928.653924,1822
1782333928.655232,1861
1782333928.65652,1848
1782333928.657828,1855
1782333928.6578372,1850
1782333928.6591492,1842
1782333928.660448,1839
1782333928.6617532,1824
1782333928.661767,1843
1782333928.663075,1884
1782333928.664362,1891
1782333928.665663,1887
1782333928.666964,1878
1782333928.6669729,1854
1782333928.668304,1855
1782333928.67109,1830
1782333928.671104,1839
1782333928.6711092,1921
1782333928.6750138,1839
1782333928.675023,1835
1782333928.675025,1844
1782333928.675027,1832
1782333928.676308,1828
1782333928.677598,1798
1782333928.6788852,1823
1782333928.6788921,1867
1782333928.680186,1860
1782333928.6814919,1826
1782333928.682821,1818
1782333928.682828,1828
1782333928.684122,1815
1782333928.685411,1807
1782333928.686684,1827
1782333928.687982,1838
1782333928.687994,1862
1782333928.689273,1865
1782333928.6905768,1839
1782333928.691905,1845
1782333928.691911,1839
1782333928.693208,1830
1782333928.694517,1826
1782333928.6958249,1839
1782333928.6958358,1893
1782333928.697153,1865
1782333928.698435,1852
1782333928.700002,1855
1782333928.7000089,1871
1782333928.702772,1867
1782333928.702778,1832
1782333928.70278,1867
1782333928.704061,1895
1782333928.70533,1884
1782333928.70661,1882
1782333928.707909,1858
1782333928.707925,1843
1782333928.709095,1853
1782333928.710371,1822
1782333928.711667,1854
1782333928.712975,1884
1782333928.712988,1871
1782333928.714087,1870
1782333928.7153971,1870
1782333928.7167292,1864
1782333928.716748,1855
1782333928.7180438,1814
1782333928.719329,1832
1782333928.720602,1846
1782333928.721897,1848
1782333928.721909,1842
1782333928.723191,1842
1782333928.724494,1836
1782333928.725795,1824
1782333928.7258072,1805
1782333928.7271092,1805
1782333928.728412,1811
1782333928.7307498,1818
1782333928.730759,1837
1782333928.7308002,1835
1782333928.734408,1831
1782333928.734417,1847
1782333928.73442,1836
1782333928.734422,1846
1782333928.7357,1863
1782333928.736972,1848
1782333928.7369769,1851
1782333928.738245,1856
1782333928.739516,1864
1782333928.7408152,1860
1782333928.7421172,1827
1782333928.7421281,1829
1782333928.743423,1832
1782333928.744728,1829
1782333928.746063,1820
1782333928.746073,1828
1782333928.7473762,1843
1782333928.74862,1843
1782333928.7499251,1842
1782333928.749933,1827
1782333928.751105,1827
1782333928.7524061,1846
1782333928.75371,1846
1782333928.7550132,1825
1782333928.755023,1835
1782333928.756254,1825
1782333928.7575622,1846
1782333928.7588658,1852
1782333928.758877,1870
1782333928.7614012,1867
1782333928.761416,1870
1782333928.765745,1870
1782333928.7657542,1851
1782333928.765756,1857
1782333928.765759,1862
1782333928.765762,1863
1782333928.767036,1849
1782333928.76832,1842
1782333928.769593,1854
1782333928.770864,1839
1782333928.770868,1854
1782333928.772162,1858
1782333928.773497,1855
1782333928.774806,1839
1782333928.774815,1828
1782333928.776119,1839
1782333928.777416,1822
1782333928.7787352,1837
1782333928.778783,1833
1782333928.780075,1851
1782333928.781377,1850
1782333928.782631,1855
1782333928.783937,1828
1782333928.783948,1807
1782333928.7852411,1858
1782333928.786539,1858
1782333928.787837,1843
1782333928.7878468,1841
1782333928.789141,1834
1782333928.7904582,1830
1782333928.79347,1813
1782333928.793484,1831
1782333928.7934878,1837
1782333928.7972312,1821
1782333928.797237,1830
1782333928.797239,1868
1782333928.797241,1860
1782333928.7985358,1835
1782333928.799762,1838
1782333928.799767,1855
1782333928.8010721,1842
1782333928.802346,1858
1782333928.803635,1855
1782333928.804937,1847
1782333928.8049479,1848
1782333928.806263,1843
1782333928.8075688,1852
1782333928.808872,1861
1782333928.808884,1851
1782333928.810174,1836
1782333928.811473,1836
1782333928.8127859,1849
1782333928.812811,1844
1782333928.81409,1823
1782333928.8153942,1817
1782333928.816702,1844
1782333928.8179982,1857
1782333928.818008,1860
1782333928.819298,1850
1782333928.8205981,1859
1782333928.823794,1867
1782333928.823809,1851
1782333928.823814,1834
1782333928.823891,1839
1782333928.8279371,1854
1782333928.8279428,1855
1782333928.827945,1837
1782333928.827947,1854
1782333928.829221,1828
1782333928.8304992,1834
1782333928.8317811,1824
1782333928.831788,1843
1782333928.8330612,1871
1782333928.834358,1861
1782333928.8356822,1862
1782333928.836976,1833
1782333928.836983,1842
1782333928.838292,1851
1782333928.839603,1842
1782333928.840917,1839
1782333928.840926,1860
1782333928.842221,1867
1782333928.84353,1855
1782333928.844834,1865
1782333928.844845,1846
1782333928.846144,1869
1782333928.847426,1838
1782333928.84873,1849
1782333928.850036,1864
1782333928.8500469,1862
1782333928.851982,1850
1782333928.851989,1842
1782333928.855595,1845
1782333928.855603,1839
1782333928.855605,1843
1782333928.856895,1846
1782333928.8569028,1843
1782333928.8581781,1852
1782333928.859448,1854
1782333928.860745,1842
1782333928.860758,1852
1782333928.86077,1848
1782333928.862061,1858
1782333928.8633652,1850
1782333928.8646789,1851
1782333928.86599,1861
1782333928.8659992,1839
1782333928.867296,1827
1782333928.868596,1827
1782333928.869898,1833
1782333928.86991,1834
1782333928.8712032,1834
1782333928.872502,1843
1782333928.8738098,1858
1782333928.8738189,1845
1782333928.8751192,1862
1782333928.876414,1865
1782333928.877713,1863
1782333928.87905,1853
1782333928.8790631,1854
1782333928.880223,1862
1782333928.883345,1871
1782333928.883361,1839
1782333928.8833652,1845
1782333928.887488,1867
1782333928.8874938,1844
1782333928.887496,1834
1782333928.887499,1807
1782333928.8885388,1821
1782333928.889826,1825
1782333928.889833,1824
1782333928.891111,1842
1782333928.892226,1826
1782333928.893499,1828
1782333928.894788,1800
1782333928.894799,1806
1782333928.8960981,1823
1782333928.8974159,1855
1782333928.898737,1854
1782333928.898779,1866
1782333928.9000819,1866
1782333928.9013839,1881
1782333928.9026859,1844
1782333928.90401,1834
1782333928.9040158,1855
1782333928.905231,1860
1782333928.9065468,1864
1782333928.907874,1839
1782333928.907882,1835
1782333928.909185,1836
1782333928.910466,1839
1782333928.912561,1814
1782333928.912566,1816
1782333928.9161322,1828
1782333928.91614,1832
1782333928.916142,1829
1782333928.9161441,1826
1782333928.9174159,1871
1782333928.918686,1874
1782333928.919772,1827
1782333928.919778,1828
1782333928.921078,1852
1782333928.9223838,1881
1782333928.923695,1875
1782333928.925013,1851
1782333928.925021,1846
1782333928.92633,1845
1782333928.927607,1848
1782333928.9289029,1839
1782333928.9289138,1848
1782333928.930215,1871
1782333928.931524,1857
1782333928.932831,1850
1782333928.932843,1843
1782333928.9341419,1854
1782333928.935443,1839
1782333928.936765,1810
1782333928.9367979,1818
1782333928.938103,1853
1782333928.939413,1830
1782333928.940726,1847
1782333928.9420311,1855
1782333928.942042,1858
1782333928.9448,1871
1782333928.944813,1852
1782333928.944818,1862
1782333928.9484138,1896
1782333928.948421,1901
1782333928.948423,1884
1782333928.949718,1882
1782333928.9497468,1863
1782333928.951024,1854
1782333928.952301,1814
1782333928.9535942,1824
1782333928.954902,1860
1782333928.954914,1861
1782333928.956217,1830
1782333928.957532,1847
1782333928.958836,1826
1782333928.958848,1830
1782333928.9601438,1812
1782333928.961427,1826
1782333928.9627252,1859
1782333928.9627619,1871
1782333928.9640582,1845
1782333928.9653802,1846
1782333928.9666839,1853
1782333928.967993,1837
1782333928.968003,1803
1782333928.9692988,1800
1782333928.970609,1833
1782333928.971853,1858
1782333928.971864,1851
1782333928.973207,1830
1782333928.974776,1847
1782333928.974785,1858
1782333928.9785678,1843
1782333928.978575,1835
1782333928.9785779,1839
1782333928.979862,1865
1782333928.979867,1854
1782333928.9811609,1846
1782333928.982443,1847
1782333928.9837282,1847
1782333928.983757,1817
1782333928.984881,1804
1782333928.9861891,1817
1782333928.987495,1871
1782333928.987508,1860
1782333928.988801,1842
1782333928.98881,1834
1782333928.990137,1839
1782333928.991432,1832
1782333928.992754,1839
1782333928.9927611,1866
1782333928.994046,1889
1782333928.995342,1860
1782333928.99664,1846
1782333928.997921,1848
1782333928.997926,1839
1782333928.99921,1836
1782333929.0005069,1807
1782333929.0017889,1823
1782333929.001794,1854
1782333929.003086,1851
1782333929.004638,1839
1782333929.008424,1831
1782333929.0084329,1855
1782333929.008436,1837
1782333929.008438,1806
1782333929.009727,1830
1782333929.009744,1867
1782333929.011014,1844
1782333929.012287,1831
1782333929.0135748,1822
1782333929.014889,1814
1782333929.014899,1802
1782333929.0161989,1775
1782333929.017502,1797
1782333929.018785,1860
1782333929.01879,1871
1782333929.0200791,1877
1782333929.021387,1849
1782333929.022686,1851
1782333929.023991,1862
1782333929.024003,1842
1782333929.0252979,1846
1782333929.026607,1880
1782333929.027921,1879
1782333929.027933,1888
1782333929.029223,1866
1782333929.030258,1887
1782333929.031561,1894
1782333929.032867,1859
1782333929.0328782,1832
1782333929.03481,1839
1782333929.035389,1889
1782333929.03904,1870
1782333929.039048,1821
1782333929.039051,1831
1782333929.039053,1825
1782333929.0401778,1824
1782333929.04146,1818
1782333929.042736,1824
1782333929.042741,1858
1782333929.04402,1846
1782333929.045322,1850
1782333929.046627,1859
1782333929.047894,1865
1782333929.0479,1855
1782333929.0491788,1807
1782333929.050456,1842
1782333929.051743,1884
1782333929.051751,1867
1782333929.0530539,1864
1782333929.0543559,1878
1782333929.055646,1850
1782333929.0569339,1845
1782333929.056941,1812
1782333929.058221,1834
1782333929.059504,1882
1782333929.060818,1864
1782333929.0608268,1874
1782333929.062156,1868
1782333929.0642822,1844
1782333929.0642931,1853
1782333929.0687969,1831
1782333929.0688078,1839
1782333929.068811,1855
1782333929.068813,1850
1782333929.068816,1856
1782333929.070102,1828
1782333929.071378,1835
1782333929.072651,1829
1782333929.073931,1795
1782333929.073937,1815
1782333929.075226,1842
1782333929.0765362,1846
1782333929.077831,1823
1782333929.0778382,1813
1782333929.079133,1815
1782333929.080457,1819
1782333929.0817978,1790
1782333929.08181,1794
1782333929.083151,1834
1782333929.084456,1862
1782333929.085747,1862
1782333929.0857532,1851
1782333929.087025,1857
1782333929.08832,1855
1782333929.089602,1845
1782333929.090904,1833
1782333929.090912,1824
1782333929.092195,1868
1782333929.0934799,1852
1782333929.0947762,1832
1782333929.094788,1859
1782333929.0961359,1844
1782333929.099377,1839
1782333929.0993862,1826
1782333929.0993888,1842
1782333929.1004338,1884
1782333929.1017401,1859
1782333929.1017559,1852
1782333929.103039,1853
1782333929.10433,1854
1782333929.10562,1843
1782333929.106921,1820
1782333929.1069288,1823
1782333929.10802,1858
1782333929.109312,1823
1782333929.110589,1847
1782333929.111865,1853
1782333929.111871,1839
1782333929.113148,1839
1782333929.1144419,1823
1782333929.11445,1839
1782333929.115746,1867
1782333929.115756,1860
1782333929.117037,1876
1782333929.118312,1882
1782333929.119596,1868
1782333929.1208708,1876
1782333929.120876,1832
1782333929.1221619,1846
1782333929.123463,1862
1782333929.124782,1856
1782333929.124793,1839
1782333929.12637,1824
1782333929.128932,1799
1782333929.1289442,1794
1782333929.128947,1800
1782333929.1302552,1810
1782333929.1315641,1818
1782333929.1328619,1817
1782333929.13287,1817
1782333929.1341472,1807
1782333929.135455,1826
1782333929.1367471,1830
1782333929.136756,1839
1782333929.13807,1851
1782333929.13937,1843
1782333929.140667,1848
1782333929.141974,1868
1782333929.141983,1858
1782333929.143274,1876
1782333929.144557,1880
1782333929.1458461,1853
1782333929.145855,1824
1782333929.147145,1849
1782333929.148426,1844
1782333929.1497111,1851
1782333929.1497312,1847
1782333929.151006,1850
1782333929.152292,1853
1782333929.153569,1842
1782333929.1548722,1844
1782333929.154884,1849
1782333929.1561139,1857
1782333929.158769,1860
1782333929.158777,1854
1782333929.1587782,1850
1782333929.160057,1862
1782333929.161334,1880
1782333929.162615,1856
1782333929.163915,1847
1782333929.1639261,1866
1782333929.1652539,1861
1782333929.166571,1866
1782333929.167896,1864
1782333929.167902,1868
1782333929.169179,1871
1782333929.170475,1846
1782333929.1717792,1827
1782333929.1717901,1843
1782333929.173124,1839
1782333929.1744099,1832
1782333929.175704,1852
1782333929.176996,1830
1782333929.177004,1820
1782333929.178297,1809
1782333929.1795971,1822
1782333929.180898,1837
1782333929.1809092,1833
1782333929.1822028,1813
1782333929.1835032,1831
1782333929.1848059,1839
1782333929.1848161,1842
1782333929.186798,1803
1782333929.186804,1828
1782333929.190285,1831
1782333929.190292,1831
1782333929.190294,1830
1782333929.191584,1839
1782333929.192854,1839
1782333929.1928582,1839
1782333929.1941261,1821
1782333929.1953971,1835
1782333929.196697,1831
1782333929.197999,1855
1782333929.1980102,1858
1782333929.1993222,1848
1782333929.2006211,1864
1782333929.201904,1855
1782333929.201907,1847
1782333929.203198,1852
1782333929.2044978,1856
1782333929.2057989,1870
1782333929.2058098,1865
1782333929.2071,1866
1782333929.208391,1882
1782333929.209703,1881
1782333929.209759,1871
1782333929.211036,1842
1782333929.212332,1839
1782333929.213572,1843
1782333929.214877,1838
1782333929.214887,1822
1782333929.2161741,1823
1782333929.2174459,1823
1782333929.2203991,1826
1782333929.220405,1812
1782333929.220407,1807
1782333929.221678,1818
1782333929.2229571,1823
1782333929.222962,1842
1782333929.2242408,1830
1782333929.225537,1816
1782333929.2268438,1810
1782333929.226856,1817
1782333929.228151,1832
1782333929.229453,1847
1782333929.2307699,1852
1782333929.230792,1852
1782333929.232094,1829
1782333929.233441,1849
1782333929.234764,1838
1782333929.234784,1823
1782333929.236078,1824
1782333929.237382,1858
1782333929.238703,1859
1782333929.238722,1871
1782333929.2387562,1853
1782333929.240056,1861
1782333929.2413561,1861
1782333929.242639,1839
1782333929.2439291,1850
1782333929.243938,1853
1782333929.245232,1842
1782333929.24653,1850
1782333929.248687,1858
1782333929.2487109,1850
1782333929.249791,1838
1782333929.249805,1828
1782333929.253761,1831
1782333929.2537658,1854
1782333929.253768,1862
1782333929.2537699,1867
1782333929.25504,1879
1782333929.25632,1876
1782333929.2576058,1871
1782333929.258878,1855
1782333929.258882,1847
1782333929.260171,1851
1782333929.261468,1852
1782333929.262788,1854
1782333929.262795,1843
1782333929.264101,1839
1782333929.265416,1831
1782333929.266742,1830
1782333929.266764,1846
1782333929.2680562,1866
1782333929.269357,1883
1782333929.2706492,1879
1782333929.2719538,1855
1782333929.2719638,1870
1782333929.273262,1871
1782333929.274576,1850
1782333929.2758799,1822
1782333929.2758908,1826
1782333929.277205,1827
1782333929.27971,1828
1782333929.279726,1838
1782333929.281122,1854
1782333929.281132,1842
1782333929.284338,1843
1782333929.284346,1833
1782333929.284349,1846
1782333929.285625,1831
1782333929.286905,1823
1782333929.28691,1817
1782333929.288191,1821
1782333929.2894778,1822
1782333929.290803,1850
1782333929.29081,1830
1782333929.2920918,1834
1782333929.2934022,1834
1782333929.29471,1844
1782333929.296009,1833
1782333929.296021,1839
1782333929.297323,1852
1782333929.298639,1851
1782333929.2999449,1842
1782333929.299963,1855
1782333929.301258,1855
1782333929.302558,1857
1782333929.303884,1868
1782333929.303891,1861
1782333929.3051891,1854
1782333929.306505,1879
1782333929.307817,1851
1782333929.3078232,1836
1782333929.309196,1861
1782333929.3129,1880
1782333929.312906,1867
1782333929.312908,1871
1782333929.31291,1882
1782333929.314056,1854
1782333929.315341,1836
1782333929.316614,1851
1782333929.317705,1878
1782333929.317732,1871
1782333929.31903,1858
1782333929.3201978,1833
1782333929.321496,1820
1782333929.322798,1837
1782333929.322809,1843
1782333929.324136,1843
1782333929.3254411,1842
1782333929.326747,1847
1782333929.326783,1838
1782333929.328078,1850
1782333929.329379,1847
1782333929.330682,1834
1782333929.332005,1829
1782333929.332011,1826
1782333929.33331,1815
1782333929.3346071,1819
1782333929.335923,1832
1782333929.335936,1811
1782333929.3372438,1827
1782333929.338552,1836
1782333929.340786,1830
1782333929.340797,1843
1782333929.340801,1832
1782333929.342131,1838
1782333929.3452759,1839
1782333929.345282,1837
1782333929.345284,1834
1782333929.346574,1820
1782333929.347849,1830
1782333929.3478541,1810
1782333929.3491268,1847
1782333929.350398,1867
1782333929.351676,1869
1782333929.352973,1867
1782333929.352984,1856
1782333929.354282,1860
1782333929.355595,1861
1782333929.35692,1842
1782333929.356927,1845
1782333929.3582451,1866
1782333929.359551,1855
1782333929.360862,1846
1782333929.360875,1836
1782333929.360877,1854
1782333929.362182,1830
1782333929.363492,1818
1782333929.364576,1820
1782333929.365891,1832
1782333929.365899,1822
1782333929.36722,1828
1782333929.368521,1834
1782333929.370847,1854
1782333929.370857,1867
1782333929.370861,1871
1782333929.374918,1839
1782333929.374927,1855
1782333929.37493,1856
1782333929.374932,1858
1782333929.376205,1830
1782333929.3774788,1832
1782333929.3787541,1842
1782333929.378759,1839
1782333929.380053,1846
1782333929.38136,1863
1782333929.382595,1877
1782333929.3839061,1877
1782333929.383918,1869
1782333929.385215,1839
1782333929.386519,1865
1782333929.3878222,1860
1782333929.387833,1865
1782333929.38908,1835
1782333929.390378,1859
1782333929.391681,1855
1782333929.392992,1838
1782333929.393003,1828
1782333929.394301,1826
1782333929.3955998,1838
1782333929.396895,1844
1782333929.396904,1838
1782333929.3981938,1859
1782333929.401085,1855
1782333929.401098,1834
1782333929.401103,1865
1782333929.405043,1851
1782333929.4050481,1852
1782333929.40505,1832
1782333929.405052,1839
1782333929.406337,1836
1782333929.407615,1835
1782333929.408886,1839
1782333929.40889,1831
1782333929.410184,1831
1782333929.411465,1837
1782333929.412779,1825
1782333929.4127848,1858
1782333929.414083,1864
1782333929.415395,1858
1782333929.416728,1849
1782333929.41676,1826
1782333929.418056,1844
1782333929.420651,1839
1782333929.420662,1845
1782333929.421888,1846
1782333929.421897,1842
1782333929.42322,1852
1782333929.424528,1834
1782333929.425826,1833
1782333929.425835,1857
1782333929.4271371,1839
1782333929.428433,1854
1782333929.432169,1878
1782333929.432626,1845
1782333929.432638,1864
1782333929.432642,1842
1782333929.436471,1807
1782333929.436477,1815
1782333929.436479,1825
1782333929.43648,1833
1782333929.4375129,1828
1782333929.4387891,1829
1782333929.438794,1828
1782333929.440073,1839
1782333929.441243,1834
1782333929.44254,1817
1782333929.443844,1829
1782333929.443857,1820
1782333929.445172,1822
1782333929.446474,1856
1782333929.447794,1887
1782333929.447806,1866
1782333929.449128,1868
1782333929.450455,1864
1782333929.451766,1854
1782333929.4517992,1866
1782333929.453014,1868
1782333929.454328,1889
1782333929.455632,1885
1782333929.4569569,1871
1782333929.456973,1868
1782333929.4582698,1864
1782333929.459897,1864
1782333929.459903,1835
1782333929.463459,1807
1782333929.463465,1824
1782333929.4634671,1839
1782333929.464561,1846
1782333929.4658408,1827
1782333929.465848,1828
1782333929.467118,1844
1782333929.468394,1842
1782333929.469696,1829
1782333929.471,1831
1782333929.4710112,1819
1782333929.4723089,1838
1782333929.47363,1844
1782333929.4749372,1836
1782333929.4749491,1843
1782333929.4762518,1830
1782333929.477558,1820
1782333929.478863,1834
1782333929.478873,1842
1782333929.48017,1843
1782333929.481496,1845
1782333929.482798,1842
1782333929.482811,1864
1782333929.4841118,1865
1782333929.484123,1850
1782333929.4854348,1845
1782333929.486732,1845
1782333929.4867682,1844
1782333929.488076,1835
1782333929.4893792,1855
1782333929.4906821,1860
1782333929.4928992,1849
1782333929.492912,1855
1782333929.492917,1839
1782333929.494246,1857
1782333929.49775,1853
1782333929.497758,1868
1782333929.497761,1871
1782333929.4977632,1855
1782333929.4990442,1854
1782333929.500315,1851
1782333929.501591,1830
1782333929.5028899,1826
1782333929.502901,1838
1782333929.504202,1851
1782333929.5055091,1839
1782333929.506832,1844
1782333929.5068421,1850
1782333929.507956,1846
1782333929.509263,1816
1782333929.510567,1838
1782333929.51187,1850
1782333929.5118809,1845
1782333929.513176,1832
1782333929.5144908,1838
1782333929.515798,1829
1782333929.51581,1839
1782333929.517117,1835
1782333929.518413,1843
1782333929.519719,1854
1782333929.52102,1839
1782333929.521031,1847
1782333929.523702,1831
1782333929.5237172,1824
1782333929.528587,1832
1782333929.5285928,1834
1782333929.528595,1823
1782333929.5285969,1839
1782333929.528599,1851
1782333929.529871,1857
1782333929.529876,1869
1782333929.531148,1853
1782333929.532425,1852
1782333929.533698,1865
1782333929.53498,1854
1782333929.5349839,1870
1782333929.536275,1855
1782333929.537576,1839
1782333929.538888,1834
1782333929.5389,1811
1782333929.540204,1834
1782333929.5413241,1842
1782333929.542645,1842
1782333929.543945,1839
1782333929.543957,1861
1782333929.5452712,1832
1782333929.546568,1836
1782333929.5478752,1836
1782333929.5478861,1850
1782333929.549189,1858
1782333929.5504892,1853
1782333929.551915,1871
1782333929.5519192,1892
1782333929.5555,1871
1782333929.5555048,1856
1782333929.555507,1848
1782333929.556792,1853
1782333929.556797,1856
1782333929.5580642,1843
1782333929.559338,1843
1782333929.5606358,1887
1782333929.561942,1876
1782333929.561953,1871
1782333929.5632498,1871
1782333929.5645518,1847
1782333929.565873,1843
1782333929.565879,1836
1782333929.5671759,1839
1782333929.5684822,1855
1782333929.569786,1856
1782333929.569797,1835
1782333929.571094,1859
1782333929.5724008,1853
1782333929.5737221,1844
1782333929.574794,1832
1782333929.574807,1847
1782333929.576106,1877
1782333929.577149,1875
1782333929.578442,1844
1782333929.5797398,1866
1782333929.579765,1852
1782333929.581821,1834
1782333929.5818298,1826
1782333929.585946,1843
1782333929.585952,1885
1782333929.585954,1881
1782333929.585956,1865
1782333929.5872269,1851
1782333929.5884979,1838
1782333929.5897741,1815
1782333929.5897799,1800
1782333929.591011,1790
1782333929.5923252,1802
1782333929.593629,1848
1782333929.594931,1816
1782333929.5949419,1792
1782333929.596241,1829
1782333929.597543,1845
1782333929.598869,1836
1782333929.598876,1803
1782333929.600172,1832
1782333929.60148,1864
1782333929.602762,1864
1782333929.602767,1839
1782333929.604064,1847
1782333929.605376,1832
1782333929.605382,1826
1782333929.606682,1797
1782333929.607969,1812
1782333929.607976,1867
1782333929.609272,1857
1782333929.6105669,1850
1782333929.612608,1853
1782333929.612621,1848
1782333929.6178958,1845
1782333929.617903,1829
1782333929.6179368,1857
1782333929.617941,1892
1782333929.617944,1848
1782333929.6179461,1847
1782333929.619221,1860
1782333929.620491,1855
1782333929.6217642,1856
1782333929.621768,1817
1782333929.623036,1838
1782333929.6243331,1871
1782333929.625639,1852
1782333929.6269429,1854
1782333929.626953,1857
1782333929.6282492,1845
1782333929.629548,1859
1782333929.630743,1820
1782333929.630761,1834
1782333929.632056,1889
1782333929.633348,1864
1782333929.634642,1854
1782333929.6359448,1864
1782333929.6359549,1853
1782333929.637248,1850
1782333929.638549,1835
1782333929.6398551,1844
1782333929.639868,1875
1782333929.641173,1877
1782333929.642473,1879
1782333929.64474,1861
1782333929.644751,1879
1782333929.645534,1864
1782333929.6491442,1839
1782333929.649151,1820
1782333929.649153,1810
1782333929.6491551,1849
1782333929.6504362,1812
1782333929.651711,1778
1782333929.651732,1803
1782333929.653004,1807
1782333929.654274,1805
1782333929.655568,1781
1782333929.6568708,1823
1782333929.6568801,1844
1782333929.658171,1839
1782333929.659457,1836
1782333929.6607559,1826
1782333929.6607912,1829
1782333929.662101,1825
1782333929.6634119,1817
1782333929.66469,1844
1782333929.665987,1861
1782333929.665998,1849
1782333929.667295,1870
1782333929.668579,1862
1782333929.669875,1845
1782333929.6698859,1859
1782333929.671194,1820
1782333929.6723871,1839
1782333929.6738539,1888
1782333929.673882,1850
1782333929.6769128,1880
1782333929.676919,1859
1782333929.6769202,1868
1782333929.6781912,1864
1782333929.679459,1823
1782333929.680732,1839
1782333929.680737,1895
1782333929.682015,1864
1782333929.683309,1849
1782333929.684397,1858
1782333929.685673,1856
1782333929.686969,1861
1782333929.68698,1827
1782333929.6882591,1848
1782333929.6895318,1885
1782333929.6908119,1864
1782333929.690819,1861
1782333929.692103,1880
1782333929.693385,1852
1782333929.694713,1860
1782333929.696019,1827
1782333929.696028,1853
1782333929.697314,1884
1782333929.698598,1885
1782333929.6998851,1853
1782333929.6998909,1839
1782333929.70118,1855
1782333929.702326,1847
1782333929.704567,1836
1782333929.704577,1811
1782333929.708129,1806
1782333929.7081401,1846
1782333929.708142,1857
1782333929.7081442,1848
1782333929.7094479,1855
1782333929.710748,1853
1782333929.710758,1855
1782333929.712057,1825
1782333929.7133582,1821
1782333929.714644,1864
1782333929.715945,1846
1782333929.715956,1842
1782333929.7172759,1860
1782333929.718577,1862
1782333929.7198741,1866
1782333929.719883,1806
1782333929.721171,1828
1782333929.7224572,1883
1782333929.7237499,1852
1782333929.7237601,1848
1782333929.723763,1854
1782333929.725055,1832
1782333929.726349,1843
1782333929.7276402,1816
1782333929.7289238,1833
1782333929.72893,1861
1782333929.730231,1839
1782333929.7315142,1854
1782333929.732793,1846
1782333929.7327979,1857
1782333929.734178,1844
1782333929.7380512,1807
1782333929.73806,1804
1782333929.7380621,1839
1782333929.738065,1850
1782333929.739351,1838
1782333929.740649,1838
1782333929.741945,1826
1782333929.741952,1844
1782333929.743238,1800
1782333929.744523,1804
1782333929.745815,1861
1782333929.745823,1838
1782333929.7471292,1821
1782333929.748461,1823
1782333929.749762,1821
1782333929.74977,1839
1782333929.7510998,1802
1782333929.752395,1826
1782333929.75368,1867
1782333929.754962,1861
1782333929.7549682,1844
1782333929.756242,1830
1782333929.75883,1848
1782333929.7588391,1837
1782333929.758841,1823
1782333929.7601411,1818
1782333929.761434,1838
1782333929.762721,1875
1782333929.762744,1874
1782333929.764436,1836
1782333929.7679749,1814
1782333929.7679832,1807
1782333929.7679849,1823
1782333929.7679858,1801
1782333929.769278,1827
1782333929.7705832,1884
1782333929.77187,1897
1782333929.771876,1891
1782333929.773149,1871
1782333929.7744288,1860
1782333929.775709,1847
1782333929.7769878,1799
1782333929.776992,1815
1782333929.778307,1887
1782333929.779616,1865
1782333929.7807481,1862
1782333929.780776,1828
1782333929.7820952,1844
1782333929.783411,1836
1782333929.784715,1790
1782333929.7860239,1815
1782333929.78603,1869
1782333929.787334,1855
1782333929.788639,1850
1782333929.789925,1851
1782333929.7899299,1855
1782333929.791223,1852
1782333929.792532,1825
1782333929.7938418,1844
1782333929.793853,1894
1782333929.795834,1876
1782333929.7958379,1845
1782333929.799258,1868
1782333929.799265,1895
1782333929.799267,1851
1782333929.800551,1802
1782333929.801829,1812
1782333929.801835,1879
1782333929.803135,1870
1782333929.8042161,1857
1782333929.805505,1861
1782333929.806823,1871
1782333929.806836,1880
1782333929.808168,1832
1782333929.809448,1824
1782333929.810731,1864
1782333929.8107362,1864
1782333929.812045,1858
1782333929.81335,1844
1782333929.814664,1867
1782333929.815949,1830
1782333929.8159528,1816
1782333929.817259,1787
1782333929.8185441,1793
1782333929.81984,1830
1782333929.819853,1838
1782333929.8211641,1829
1782333929.8224268,1826
1782333929.823734,1820
1782333929.823762,1828
1782333929.8251579,1800
1782333929.826615,1825
1782333929.8295622,1862
1782333929.82957,1853
1782333929.8295722,1852
1782333929.8308601,1850
1782333929.830865,1835
1782333929.832136,1817
1782333929.83341,1807
1782333929.8347242,1850
1782333929.8360279,1893
1782333929.836045,1892
1782333929.837333,1890
1782333929.838561,1874
1782333929.839849,1869
1782333929.8398552,1864
1782333929.841048,1806
1782333929.8423512,1848
1782333929.843661,1897
1782333929.8449438,1871
1782333929.844948,1876
1782333929.84624,1852
1782333929.846255,1859
1782333929.847536,1833
1782333929.848833,1810
1782333929.848844,1830
1782333929.850133,1884
1782333929.851431,1857
1782333929.8527381,1829
1782333929.852772,1815
1782333929.85407,1823
1782333929.8560798,1820
1782333929.856085,1792
1782333929.859607,1798
1782333929.859614,1848
1782333929.859616,1846
1782333929.860886,1835
1782333929.8608902,1825
1782333929.862156,1829
1782333929.8634272,1837
1782333929.864702,1826
1782333929.864724,1803
1782333929.8660202,1825
1782333929.867323,1864
1782333929.868625,1861
1782333929.869928,1819
1782333929.869938,1854
1782333929.871249,1829
1782333929.872562,1817
1782333929.873882,1810
1782333929.873887,1821
1782333929.875196,1890
1782333929.876501,1886
1782333929.877804,1889
1782333929.877815,1875
1782333929.879116,1862
1782333929.880426,1848
1782333929.881758,1821
1782333929.881782,1823
1782333929.88304,1843
1782333929.884348,1862
1782333929.88566,1853
1782333929.886942,1823
1782333929.886946,1854
1782333929.8899672,1849
1782333929.889975,1823
1782333929.889977,1825
1782333929.891257,1868
1782333929.892527,1839
1782333929.893805,1833
1782333929.89381,1837
1782333929.894839,1850
1782333929.896139,1855
1782333929.897444,1814
1782333929.8987808,1835
1782333929.8987882,1891
1782333929.900084,1866
1782333929.9013891,1866
1782333929.902719,1871
1782333929.904035,1839
1782333929.904045,1842
1782333929.9053462,1799
1782333929.906535,1824
1782333929.907813,1871
1782333929.907818,1889
1782333929.90911,1885
1782333929.910437,1858
1782333929.911747,1871
1782333929.91177,1857
1782333929.9130611,1826
1782333929.914388,1826
1782333929.916279,1869
1782333929.916285,1887
1782333929.9202719,1879
1782333929.92028,1861
1782333929.9202812,1839
1782333929.9202828,1839
1782333929.921556,1834
1782333929.922842,1826
1782333929.9228501,1851
1782333929.9241421,1884
1782333929.925447,1835
1782333929.926765,1806
1782333929.927969,1830
1782333929.927983,1828
1782333929.929291,1833
1782333929.930593,1802
1782333929.9318888,1816
1782333929.931903,1866
1782333929.9331892,1858
1782333929.93437,1860
1782333929.935691,1867
1782333929.9369931,1883
1782333929.937004,1870
1782333929.938293,1824
1782333929.939575,1828
1782333929.940874,1879
1782333929.940885,1853
1782333929.942034,1835
1782333929.9433448,1844
1782333929.94465,1852
1782333929.945955,1836
1782333929.945966,1784
1782333929.947741,1805
1782333929.948034,1845
1782333929.95117,1836
1782333929.951175,1828
1782333929.951177,1842
1782333929.952461,1866
1782333929.95373,1862
1782333929.953734,1803
1782333929.955007,1832
1782333929.956295,1879
1782333929.957598,1862
1782333929.958904,1848
1782333929.958915,1855
1782333929.9602182,1835
1782333929.961525,1829
1782333929.962852,1803
1782333929.962858,1796
1782333929.964143,1870
1782333929.965441,1842
1782333929.966763,1824
1782333929.966787,1827
1782333929.968089,1822
1782333929.968102,1842
1782333929.969413,1826
1782333929.9707189,1846
1782333929.972054,1880
1782333929.9720588,1881
1782333929.973355,1907
1782333929.9746602,1839
1782333929.9759412,1858
1782333929.975945,1836
1782333929.9779918,1817
1782333929.977998,1814
1782333929.981772,1834
1782333929.98178,1845
1782333929.981781,1843
1782333929.9817832,1837
1782333929.983053,1856
1782333929.984322,1842
1782333929.985593,1835
1782333929.986732,1800
1782333929.986762,1827
1782333929.988062,1876
1782333929.989343,1856
1782333929.990628,1849
1782333929.991916,1842
1782333929.9919229,1851
1782333929.993205,1838
1782333929.9944792,1791
1782333929.995753,1827
1782333929.995757,1851
1782333929.996893,1842
1782333929.998174,1834
1782333929.9994721,1842
1782333930.000763,1824
1782333930.00077,1842
1782333930.002333,1800
1782333930.003618,1796
1782333930.0049121,1854
1782333930.0049229,1853
1782333930.006197,1832
1782333930.0079591,1836
1782333930.007964,1835
1782333930.011652,1832
1782333930.011659,1798
1782333930.011661,1813
1782333930.012935,1889
1782333930.012939,1858
1782333930.014216,1869
1782333930.015489,1856
1782333930.016782,1850
1782333930.016792,1858
1782333930.018068,1813
1782333930.01934,1834
1782333930.0206358,1878
1782333930.02194,1870
1782333930.021951,1855
1782333930.0232499,1834
1782333930.024572,1870
1782333930.0258958,1861
1782333930.025907,1857
1782333930.027201,1864
1782333930.028507,1879
1782333930.029828,1898
1782333930.0298429,1880
1782333930.031132,1857
1782333930.032436,1848
1782333930.033719,1845
1782333930.0337448,1807
1782333930.035028,1811
1782333930.036326,1843
1782333930.03761,1899
1782333930.038909,1862
1782333930.038919,1843
1782333930.041041,1851
1782333930.0410519,1845
1782333930.045812,1826
1782333930.0458188,1827
1782333930.045821,1824
1782333930.0458229,1853
1782333930.045824,1846
1782333930.0470998,1848
1782333930.0483751,1853
1782333930.049654,1835
1782333930.0509539,1839
1782333930.050967,1788
1782333930.052255,1807
1782333930.053377,1850
1782333930.054674,1846
1782333930.055966,1839
1782333930.05597,1832
1782333930.0572538,1837
1782333930.0585668,1854
1782333930.059853,1822
1782333930.05986,1820
1782333930.061177,1880
1782333930.062376,1886
1782333930.063667,1875
1782333930.064965,1869
1782333930.064975,1843
1782333930.0663,1839
1782333930.067591,1834
1782333930.068887,1863
1782333930.068896,1892
1782333930.071569,1857
1782333930.071577,1852
1782333930.075576,1842
1782333930.075584,1835
1782333930.075586,1838
1782333930.075588,1788
1782333930.076621,1813
1782333930.077903,1859
1782333930.077909,1871
1782333930.07915,1850
1782333930.080437,1839
1782333930.081714,1869
1782333930.081739,1845
1782333930.083065,1815
1782333930.084364,1826
1782333930.085644,1842
1782333930.0869188,1856
1782333930.0869231,1824
1782333930.088224,1829
1782333930.089528,1821
1782333930.0908318,1824
1782333930.090843,1833
1782333930.092148,1822
1782333930.092157,1839
1782333930.093447,1875
1782333930.0947258,1867
1782333930.09473,1830
1782333930.096023,1857
1782333930.097327,1854
1782333930.098652,1839
1782333930.100619,1833
1782333930.1006248,1842
1782333930.1043541,1909
1782333930.1043599,1884
1782333930.104362,1883
1782333930.104364,1900
1782333930.105633,1878
1782333930.1066968,1849
1782333930.1079948,1844
1782333930.108001,1845
1782333930.1092758,1858
1782333930.110548,1823
1782333930.111843,1828
1782333930.111854,1832
1782333930.113172,1855
1782333930.114474,1822
1782333930.115814,1828
1782333930.1158211,1835
1782333930.117132,1842
1782333930.1184661,1843
1782333930.119791,1825
1782333930.119798,1813
1782333930.121098,1839
1782333930.122404,1862
1782333930.123709,1839
1782333930.125014,1830
1782333930.125025,1856
1782333930.126327,1853
1782333930.127608,1854
1782333930.128889,1860
1782333930.1288939,1866
1782333930.130781,1860
1782333930.130786,1854
1782333930.134603,1851
1782333930.134609,1901
1782333930.134611,1883
1782333930.135881,1869
1782333930.135885,1875
1782333930.137151,1876
1782333930.13826,1880
1782333930.139534,1856
1782333930.140841,1839
1782333930.140851,1854
1782333930.142161,1852
1782333930.143456,1839
1782333930.144763,1850
1782333930.144774,1848
1782333930.1460748,1849
1782333930.147378,1844
1782333930.148673,1819
1782333930.1500192,1807
1782333930.150024,1839
1782333930.15133,1825
1782333930.15263,1829
1782333930.153939,1858
1782333930.15395,1854
1782333930.155245,1852
1782333930.156569,1816
1782333930.157867,1825
1782333930.157879,1821
1782333930.159521,1835
1782333930.163292,1833
1782333930.163297,1826
1782333930.163299,1831
1782333930.1633012,1827
1782333930.164574,1816
1782333930.165853,1807
1782333930.165857,1819
1782333930.1671271,1821
1782333930.168433,1829
1782333930.169766,1829
1782333930.169777,1832
1782333930.171098,1839
1782333930.172401,1839
1782333930.173716,1839
1782333930.175026,1830
1782333930.1750379,1837
1782333930.176339,1830
1782333930.17762,1838
1782333930.178914,1854
1782333930.178924,1854
1782333930.180233,1838
1782333930.181534,1834
1782333930.182846,1879
1782333930.1828558,1845
1782333930.184153,1845
1782333930.185436,1856
1782333930.1865191,1853
1782333930.1878111,1832
1782333930.187822,1842
1782333930.18908,1848
1782333930.190381,1860
1782333930.191691,1843
1782333930.193172,1825
1782333930.1931798,1854
1782333930.1977332,1846
1782333930.1977391,1848
1782333930.197741,1857
1782333930.1977432,1880
1782333930.1977448,1894
1782333930.199018,1860
1782333930.20029,1839
1782333930.201569,1835
1782333930.202848,1846
1782333930.2028532,1829
1782333930.204148,1825
1782333930.205211,1827
1782333930.206526,1818
1782333930.207853,1838
1782333930.207863,1842
1782333930.2091572,1837
1782333930.210444,1868
1782333930.2117279,1861
1782333930.2117498,1839
1782333930.213023,1843
1782333930.214303,1837
1782333930.215604,1844
1782333930.216728,1836
1782333930.2180321,1831
1782333930.2180438,1846
1782333930.218047,1831
1782333930.219344,1844
1782333930.220643,1850
1782333930.223409,1855
1782333930.223416,1866
1782333930.223419,1854
1782333930.2274601,1861
1782333930.2274659,1839
1782333930.227468,1824
1782333930.227469,1819
1782333930.228738,1835
1782333930.228742,1838
1782333930.2300181,1807
1782333930.2312908,1830
1782333930.2325618,1832
1782333930.233854,1817
1782333930.233865,1853
1782333930.235188,1859
1782333930.236489,1823
1782333930.2377899,1822
1782333930.237801,1837
1782333930.23907,1845
1782333930.240372,1835
1782333930.2417018,1823
1782333930.2430038,1838
1782333930.243016,1830
1782333930.244291,1822
1782333930.245562,1849
1782333930.246861,1871
1782333930.246874,1832
1782333930.24819,1839
1782333930.24946,1847
1782333930.2507598,1856
1782333930.2507782,1862
1782333930.252223,1855
1782333930.256567,1876
1782333930.2565749,1885
1782333930.256577,1885
1782333930.2565792,1870
1782333930.257679,1870
1782333930.258949,1835
1782333930.2589529,1833
1782333930.2602189,1821
1782333930.261487,1827
1782333930.262775,1813
1782333930.2627861,1831
1782333930.2641048,1833
1782333930.266706,1838
1782333930.266722,1825
1782333930.268039,1842
1782333930.2680519,1838
1782333930.269346,1819
1782333930.270647,1845
1782333930.271948,1839
1782333930.271959,1856
1782333930.273046,1852
1782333930.274343,1858
1782333930.275645,1823
1782333930.276947,1839
1782333930.276958,1839
1782333930.278251,1844
1782333930.279552,1849
1782333930.28075,1855
1782333930.28077,1855
1782333930.282478,1870
1782333930.2866518,1848
1782333930.286657,1863
1782333930.286659,1868
1782333930.2866611,1870
1782333930.28793,1870
1782333930.287934,1864
1782333930.2892091,1835
1782333930.290487,1839
1782333930.291757,1838
1782333930.291761,1846
1782333930.293053,1844
1782333930.2943318,1851
1782333930.295619,1865
1782333930.2968771,1860
1782333930.296888,1849
1782333930.298193,1856
1782333930.299511,1849
1782333930.300815,1819
1782333930.300826,1805
1782333930.302141,1816
1782333930.303446,1845
1782333930.304759,1844
1782333930.304789,1846
1782333930.3061051,1857
1782333930.3074088,1852
1782333930.308712,1857
1782333930.31004,1826
1782333930.31005,1842
1782333930.3113532,1845
1782333930.312862,1829
1782333930.3128672,1836
1782333930.317064,1857
1782333930.317072,1869
1782333930.3170738,1858
1782333930.317076,1846
1782333930.318361,1836
1782333930.3196359,1827
1782333930.320912,1825
1782333930.320917,1838
1782333930.3222349,1825
1782333930.3235269,1838
1782333930.324828,1826
1782333930.324842,1850
1782333930.326168,1834
1782333930.327494,1843
1782333930.3288152,1859
1782333930.328823,1828
1782333930.3301382,1844
1782333930.331435,1826
1782333930.332628,1848
1782333930.33394,1831
1782333930.333947,1830
1782333930.335178,1839
1782333930.33648,1848
1782333930.3377721,1851
1782333930.337783,1842
1782333930.339088,1834
1782333930.340387,1836
1782333930.341683,1838
1782333930.344301,1846
1782333930.344309,1849
1782333930.344312,1878
1782333930.349143,1847
1782333930.349154,1857
1782333930.349157,1864
1782333930.349159,1859
1782333930.349162,1843
1782333930.349164,1847
1782333930.350444,1852
1782333930.351743,1839
1782333930.35175,1865
1782333930.353036,1860
1782333930.3543181,1857
1782333930.355595,1869
1782333930.356888,1848
1782333930.356897,1847
1782333930.358204,1860
1782333930.359494,1868
1782333930.3607712,1871
1782333930.360776,1855
1782333930.362047,1868
1782333930.36335,1855
1782333930.364653,1846
1782333930.365958,1828
1782333930.365969,1822
1782333930.367276,1847
1782333930.368604,1848
1782333930.369905,1844
1782333930.369914,1826
1782333930.371205,1825
1782333930.3724911,1838
1782333930.373783,1828
1782333930.37379,1839
1782333930.375238,1845
1782333930.378507,1858
1782333930.378516,1843
1782333930.378518,1855
1782333930.379801,1850
1782333930.379807,1850
1782333930.381099,1835
1782333930.382398,1834
1782333930.383693,1828
1782333930.384979,1830
1782333930.384985,1849
1782333930.386257,1850
1782333930.387538,1854
1782333930.388818,1867
1782333930.3888252,1860
1782333930.390144,1835
1782333930.391511,1850
1782333930.39283,1865
1782333930.392838,1853
1782333930.394136,1852
1782333930.395442,1839
1782333930.3967721,1825
1782333930.3968031,1820
1782333930.398128,1815
1782333930.399424,1830
1782333930.4007318,1854
1782333930.400767,1855
1782333930.402067,1858
1782333930.403371,1859
1782333930.404969,1874
1782333930.404974,1848
1782333930.408663,1825
1782333930.40867,1836
1782333930.408671,1839
1782333930.40995,1839
1782333930.409954,1850
1782333930.411242,1831
1782333930.412521,1847
1782333930.413801,1871
1782333930.4138072,1861
1782333930.4150882,1839
1782333930.416369,1868
1782333930.4177191,1861
1782333930.41774,1839
1782333930.41904,1822
1782333930.420342,1849
1782333930.421624,1831
1782333930.4229429,1839
1782333930.4229498,1850
1782333930.4242518,1850
1782333930.42556,1859
1782333930.4268649,1839
1782333930.426877,1829
1782333930.428187,1838
1782333930.429491,1853
1782333930.43059,1857
1782333930.431894,1846
1782333930.431905,1855
1782333930.4332008,1861
1782333930.434623,1855
1782333930.437818,1830
1782333930.437823,1835
1782333930.437824,1838
1782333930.4378262,1839
1782333930.4390988,1842
1782333930.440375,1843
1782333930.4416482,1866
1782333930.442942,1851
1782333930.4429529,1839
1782333930.444252,1826
1782333930.445558,1836
1782333930.446843,1821
1782333930.446847,1820
1782333930.448129,1832
1782333930.449461,1839
1782333930.450764,1839
1782333930.450776,1865
1782333930.45208,1860
1782333930.4533849,1832
1782333930.4547021,1862
1782333930.4560032,1857
1782333930.4560142,1867
1782333930.45731,1854
1782333930.458614,1858
1782333930.459892,1846
1782333930.459896,1852
1782333930.461189,1844
1782333930.4624908,1839
1782333930.4647198,1823
1782333930.464725,1812
1782333930.4649248,1839
1782333930.468019,1849
1782333930.468024,1844
1782333930.4680262,1847
1782333930.469301,1861
1782333930.47057,1889
1782333930.4718568,1856
1782333930.471862,1839
1782333930.4731362,1838
1782333930.4744341,1834
1782333930.475737,1839
1782333930.475772,1856
1782333930.475774,1849
1782333930.477066,1839
1782333930.4783711,1832
1782333930.479651,1850
1782333930.48094,1853
1782333930.480951,1846
1782333930.482265,1849
1782333930.483572,1842
1782333930.484876,1838
1782333930.484886,1845
1782333930.486184,1838
1782333930.487485,1844
1782333930.488812,1849
1782333930.488818,1854
1782333930.4900968,1847
1782333930.4913979,1817
1782333930.4927201,1845
1782333930.494051,1851
1782333930.49406,1807
1782333930.495352,1799
1782333930.4968479,1819
1782333930.496854,1839
1782333930.5003068,1823
1782333930.500313,1849
1782333930.500315,1839
1782333930.501596,1855
1782333930.502869,1850
1782333930.5028741,1870
1782333930.504143,1892
1782333930.5052202,1884
1782333930.506523,1864
1782333930.507852,1844
1782333930.507858,1836
1782333930.50916,1848
1782333930.510463,1831
1782333930.511776,1823
1782333930.511791,1838
1782333930.513092,1838
1782333930.514401,1845
1782333930.515717,1855
1782333930.517036,1865
1782333930.5170481,1852
1782333930.518348,1855
1782333930.519656,1842
1782333930.520959,1842
1782333930.520969,1855
1782333930.5222871,1849
1782333930.5236108,1839
1782333930.524917,1834
1782333930.52493,1843
1782333930.5262442,1819
1782333930.529732,1828
1782333930.529738,1823
1782333930.52974,1836
1782333930.529742,1827
1782333930.531014,1824
1782333930.532287,1836
1782333930.533557,1835
1782333930.534851,1830
1782333930.534861,1815
1782333930.536154,1848
1782333930.5374532,1862
1782333930.538742,1847
1782333930.538791,1890
1782333930.5401118,1886
1782333930.541478,1871
1782333930.542807,1854
1782333930.542815,1856
1782333930.5441191,1859
1782333930.545425,1870
1782333930.546735,1856
1782333930.546767,1838
1782333930.54807,1855
1782333930.5493739,1860
1782333930.550536,1858
1782333930.5518389,1854
1782333930.551852,1833
1782333930.553157,1850
1782333930.5544431,1841
1782333930.556318,1839
1782333930.556324,1836
1782333930.560395,1827
1782333930.5603998,1846
1782333930.560401,1825
1782333930.5604029,1846
1782333930.561671,1834
1782333930.562942,1826
1782333930.562946,1826
1782333930.564223,1836
1782333930.565523,1816
1782333930.566828,1834
1782333930.5668402,1831
1782333930.5681548,1828
1782333930.569458,1838
1782333930.570764,1846
1782333930.570775,1847
1782333930.572072,1858
1782333930.5733771,1851
1782333930.574712,1868
1782333930.575964,1882
1782333930.575975,1860
1782333930.5773041,1839
1782333930.578609,1846
1782333930.579911,1849
1782333930.579921,1842
1782333930.581224,1852
1782333930.58253,1826
1782333930.583835,1807
1782333930.5838459,1796
1782333930.5851462,1827
1782333930.586713,1839
1782333930.587001,1838
1782333930.59077,1844
1782333930.590776,1860
1782333930.590778,1838
1782333930.59078,1851
1782333930.592057,1859
1782333930.5933282,1862
1782333930.594599,1844
1782333930.595894,1852
1782333930.595905,1856
1782333930.597209,1863
1782333930.598523,1843
1782333930.5998552,1852
1782333930.599871,1849
1782333930.6011882,1850
1782333930.6024902,1842
1782333930.603759,1849
1782333930.603771,1844
1782333930.605071,1845
1782333930.605083,1845
1782333930.606377,1832
1782333930.607659,1835
1782333930.608953,1855
1782333930.608963,1856
1782333930.610259,1850
1782333930.611542,1850
1782333930.6128352,1846
1782333930.612845,1850
1782333930.6141398,1871
1782333930.615444,1844
1782333930.617095,1834
1782333930.6171,1823
1782333930.6215801,1834
1782333930.621585,1859
1782333930.621587,1855
1782333930.621588,1865
1782333930.6228638,1871
1782333930.62287,1836
1782333930.6241438,1848
1782333930.625428,1836
1782333930.626752,1831
1782333930.6267729,1839
1782333930.6280918,1856
1782333930.6293828,1831
1782333930.630671,1837
1782333930.631951,1844
1782333930.6319559,1823
1782333930.6332679,1826
1782333930.634568,1839
1782333930.635875,1855
1782333930.6358862,1860
1782333930.637192,1861
1782333930.638497,1871
1782333930.639818,1835
1782333930.639824,1837
1782333930.641119,1833
1782333930.642424,1853
1782333930.643734,1847
1782333930.6437812,1851
1782333930.645102,1855
1782333930.64638,1852
1782333930.648515,1858
1782333930.64852,1850
1782333930.6526961,1846
1782333930.6527019,1852
1782333930.652704,1870
1782333930.652707,1863
1782333930.653976,1847
1782333930.65398,1834
1782333930.655021,1838
1782333930.656297,1839
1782333930.657571,1837
1782333930.658866,1833
1782333930.658877,1827
1782333930.6601758,1838
1782333930.661479,1850
1782333930.662784,1862
1782333930.6627939,1868
1782333930.664088,1887
1782333930.6653912,1884
1782333930.666698,1871
1782333930.6680021,1871
1782333930.668015,1835
1782333930.669319,1834
1782333930.670621,1850
1782333930.671927,1850
1782333930.671937,1845
1782333930.673236,1880
1782333930.674539,1866
1782333930.675841,1845
1782333930.675852,1844
1782333930.6771479,1836
1782333930.67887,1855
1782333930.678875,1862
1782333930.683027,1846
1782333930.6830342,1848
1782333930.683035,1848
1782333930.683037,1862
1782333930.684308,1846
1782333930.685577,1844
1782333930.686846,1847
1782333930.68685,1826
1782333930.688143,1834
1782333930.689466,1830
1782333930.69077,1848
1782333930.6907809,1859
1782333930.69208,1855
1782333930.6933818,1852
1782333930.6944482,1851
1782333930.695779,1850
1782333930.6957839,1844
1782333930.697092,1820
1782333930.698405,1839
1782333930.699724,1838
1782333930.699758,1838
1782333930.701012,1827
1782333930.7023098,1846
1782333930.703611,1838
1782333930.704915,1828
1782333930.704926,1824
1782333930.706228,1828
1782333930.707538,1845
1782333930.7110112,1839
1782333930.711015,1857
1782333930.711017,1834
1782333930.711018,1839
1782333930.712288,1851
1782333930.713568,1838
1782333930.714849,1853
1782333930.714855,1844
1782333930.716149,1854
1782333930.717452,1844
1782333930.718789,1847
1782333930.7187939,1834
1782333930.719976,1847
1782333930.721287,1850
1782333930.7226,1839
1782333930.723906,1851
1782333930.723916,1878
1782333930.7252429,1855
1782333930.726547,1839
1782333930.727861,1846
1782333930.727873,1825
1782333930.729179,1824
1782333930.730486,1818
1782333930.731803,1825
1782333930.7318132,1817
1782333930.7318149,1819
1782333930.733118,1839
1782333930.734379,1844
1782333930.735657,1857
1782333930.736951,1848
1782333930.736963,1857
1782333930.73826,1848
1782333930.7401931,1854
1782333930.740198,1854
1782333930.744417,1862
1782333930.744422,1857
1782333930.744423,1834
1782333930.744425,1855
1782333930.745592,1832
1782333930.746864,1837
1782333930.746868,1847
1782333930.748148,1826
1782333930.7494452,1845
1782333930.750762,1833
1782333930.750774,1845
1782333930.752079,1852
1782333930.753382,1834
1782333930.7546911,1831
1782333930.756007,1871
1782333930.7560189,1851
1782333930.757316,1835
1782333930.758621,1838
1782333930.759922,1855
1782333930.759933,1846
1782333930.76123,1830
1782333930.762527,1844
1782333930.7638311,1845
1782333930.763842,1839
1782333930.7651541,1855
1782333930.7664452,1860
1782333930.767754,1853
1782333930.7677739,1823
1782333930.7698612,1830
1782333930.769869,1839
1782333930.771091,1848
1782333930.77476,1828
1782333930.7747672,1851
1782333930.7747688,1859
1782333930.774771,1871
1782333930.776042,1860
1782333930.777312,1861
1782333930.778582,1863
1782333930.779853,1871
1782333930.7798579,1849
1782333930.7809348,1864
1782333930.782232,1866
1782333930.7835379,1852
1782333930.7848802,1866
1782333930.7848861,1852
1782333930.786201,1845
1782333930.787502,1847
1782333930.788813,1862
1782333930.788827,1858
1782333930.790118,1849
1782333930.7914171,1846
1782333930.792723,1833
1782333930.794029,1831
1782333930.79404,1817
1782333930.7953331,1818
1782333930.796614,1823
1782333930.797906,1826
1782333930.797916,1834
1782333930.799705,1825
1782333930.799736,1833
1782333930.8040261,1825
1782333930.804032,1817
1782333930.804034,1839
1782333930.8040361,1863
1782333930.8051782,1856
1782333930.806454,1858
1782333930.807724,1835
1782333930.807728,1838
1782333930.8089972,1845
1782333930.810287,1855
1782333930.811588,1862
1782333930.81289,1867
1782333930.8129,1854
1782333930.814077,1844
1782333930.815375,1838
1782333930.816702,1844
1782333930.816742,1844
1782333930.818036,1839
1782333930.819337,1855
1782333930.820637,1860
1782333930.821938,1878
1782333930.8219478,1863
1782333930.823255,1865
1782333930.8245602,1866
1782333930.825862,1871
1782333930.825872,1860
1782333930.827174,1819
1782333930.828476,1833
1782333930.830189,1816
1782333930.8301928,1812
1782333930.8342872,1814
1782333930.834293,1819
1782333930.834295,1831
1782333930.834296,1828
1782333930.835565,1839
1782333930.836833,1844
1782333930.836837,1835
1782333930.8380501,1829
1782333930.839333,1807
1782333930.8406348,1839
1782333930.8419409,1845
1782333930.8419552,1838
1782333930.843231,1839
1782333930.844523,1848
1782333930.8458261,1844
1782333930.845836,1832
1782333930.8471382,1845
1782333930.8484402,1864
1782333930.849772,1850
1782333930.849789,1863
1782333930.851083,1850
1782333930.8523881,1858
1782333930.853703,1842
1782333930.8550029,1820
1782333930.8550138,1818
1782333930.856309,1818
1782333930.857613,1820
1782333930.858918,1837
1782333930.858929,1833
1782333930.860728,1830
1782333930.860918,1853
1782333930.8609211,1854
1782333930.864945,1844
1782333930.864952,1846
1782333930.864954,1858
1782333930.864955,1859
1782333930.86606,1857
1782333930.86733,1866
1782333930.8686001,1859
1782333930.8698938,1843
1782333930.869905,1865
1782333930.8712041,1862
1782333930.8725052,1858
1782333930.873806,1847
1782333930.8738282,1846
1782333930.8751218,1854
1782333930.876427,1864
1782333930.877728,1868
1782333930.877766,1877
1782333930.879068,1863
1782333930.880374,1861
1782333930.881689,1839
1782333930.882994,1833
1782333930.883005,1839
1782333930.8843,1837
1782333930.885586,1843
1782333930.886881,1861
1782333930.886893,1837
1782333930.888196,1852
1782333930.889496,1835
1782333930.890795,1834
1782333930.890804,1842
1782333930.8937979,1857
1782333930.893805,1862
1782333930.8938072,1862
1782333930.8982038,1841
1782333930.89821,1846
1782333930.8982131,1844
1782333930.8982148,1838
1782333930.8994849,1839
1782333930.9007528,1824
1782333930.900757,1833
1782333930.9020228,1826
1782333930.903293,1837
1782333930.904583,1843
1782333930.905886,1844
1782333930.905899,1843
1782333930.907211,1857
1782333930.908514,1860
1782333930.909795,1885
1782333930.9097989,1874
1782333930.911107,1880
1782333930.9124029,1858
1782333930.913727,1839
1782333930.913756,1851
1782333930.915054,1847
1782333930.916358,1828
1782333930.9176672,1842
1782333930.918987,1818
1782333930.918998,1832
1782333930.920295,1823
1782333930.922931,1813
1782333930.922938,1807
1782333930.922979,1816
1782333930.927479,1843
1782333930.9274838,1854
1782333930.927486,1853
1782333930.927488,1839
1782333930.928755,1836
1782333930.928759,1844
1782333930.9300249,1866
1782333930.931304,1861
1782333930.932575,1853
1782333930.933868,1855
1782333930.933878,1866
1782333930.935157,1864
1782333930.936448,1859
1782333930.937751,1850
1782333930.937786,1842
1782333930.939084,1854
1782333930.9403882,1830
1782333930.9417322,1820
1782333930.941749,1815
1782333930.944337,1819
1782333930.9443479,1836
1782333930.945645,1832
1782333930.946947,1835
1782333930.946968,1839
1782333930.948262,1833
1782333930.949545,1827
1782333930.950838,1874
1782333930.950848,1867
1782333930.952342,1848
1782333930.956255,1849
1782333930.9562602,1843
1782333930.9562619,1848
1782333930.956264,1812
1782333930.957535,1824
1782333930.958813,1844
1782333930.958818,1832
1782333930.960095,1839
1782333930.9613912,1859
1782333930.9626722,1845
1782333930.963966,1848
1782333930.9639769,1874
1782333930.965287,1871
1782333930.966607,1871
1782333930.9677172,1869
1782333930.969014,1871
1782333930.9690251,1864
1782333930.970335,1834
1782333930.971634,1834
1782333930.972943,1847
1782333930.972954,1852
1782333930.974262,1844
1782333930.975565,1850
1782333930.976869,1846
1782333930.97688,1826
1782333930.978176,1844
1782333930.979479,1842
1782333930.980763,1836
1782333930.980769,1861
1782333930.98654,1880
1782333930.986547,1873
1782333930.986549,1856
1782333930.986551,1839
1782333930.9865532,1847
1782333930.9878259,1860
1782333930.987831,1853
1782333930.989107,1838
1782333930.989113,1821
1782333930.9903848,1827
1782333930.9916549,1820
1782333930.9929469,1843
1782333930.9929569,1844
1782333930.9942532,1830
1782333930.9955578,1834
1782333930.996862,1816
1782333930.996873,1828
1782333930.9981709,1846
1782333930.999488,1839
1782333931.000798,1846
1782333931.000809,1818
1782333931.0021079,1829
1782333931.0034099,1839
1782333931.004714,1839
1782333931.00604,1843
1782333931.006051,1847
1782333931.0073578,1842
1782333931.00865,1825
1782333931.00995,1831
1782333931.0099578,1819
1782333931.011256,1833
1782333931.013111,1832
1782333931.0131671,1837
1782333931.017914,1839
1782333931.017924,1846
1782333931.017926,1857
1782333931.017928,1850
1782333931.01793,1830
1782333931.019215,1834
1782333931.020512,1807
1782333931.021802,1819
1782333931.0218098,1832
1782333931.023105,1827
1782333931.024392,1813
1782333931.0256839,1834
1782333931.026973,1841
1782333931.0269802,1823
1782333931.0282629,1811
1782333931.0295522,1838
1782333931.0307379,1853
1782333931.0307672,1855
1782333931.03205,1844
1782333931.0333068,1845
1782333931.034614,1846
1782333931.035908,1852
1782333931.035915,1820
1782333931.037199,1832
1782333931.038477,1844
1782333931.0397608,1829
1782333931.039768,1823
1782333931.0410502,1843
1782333931.042324,1861
1782333931.0438662,1867
1782333931.043872,1823
1782333931.0451798,1844
1782333931.064905,1836
1782333931.0649128,1838
1782333931.064915,1876
1782333931.06495,1861
1782333931.064954,1876
1782333931.064955,1860
1782333931.064957,1857
1782333931.0649579,1844
1782333931.06496,1848
1782333931.064961,1839
1782333931.064963,1853
1782333931.064964,1858
1782333931.064965,1855
1782333931.064967,1843
1782333931.0649679,1828
1782333931.064969,1832
1782333931.064971,1834
1782333931.064972,1839
1782333931.064973,1845
1782333931.064975,1860
1782333931.066247,1863
1782333931.067517,1867
1782333931.070956,1859
1782333931.070961,1866
1782333931.070962,1864
1782333931.0709639,1855
1782333931.0722291,1858
1782333931.073544,1862
1782333931.074813,1883
1782333931.074816,1878
1782333931.0763679,1885
1782333931.092438,1862
1782333931.092447,1877
1782333931.092448,1892
1782333931.092449,1863
1782333931.0924501,1860
1782333931.092452,1855
1782333931.092452,1847
1782333931.092453,1839
1782333931.092454,1838
1782333931.092486,1843
1782333931.092489,1845
1782333931.09249,1844
1782333931.092491,1854
1782333931.092492,1850
1782333931.092492,1826
1782333931.092493,1839
1782333931.093768,1828
1782333931.093771,1836
1782333931.09504,1849
1782333931.097999,1839
1782333931.098002,1846
1782333931.098003,1854
1782333931.0992692,1855
1782333931.100555,1863
1782333931.101862,1855
1782333931.1018739,1854
1782333931.103847,1854
1782333931.10385,1839
1782333931.116003,1841
1782333931.116009,1822
1782333931.11601,1807
1782333931.11601,1805
1782333931.116011,1815
1782333931.116012,1805
1782333931.116013,1811
1782333931.116014,1828
1782333931.116014,1833
1782333931.1160152,1824
1782333931.1160161,1812
1782333931.1160161,1839
1782333931.117286,1851
1782333931.1172879,1850
1782333931.120378,1852
1782333931.12038,1834
1782333931.1203809,1853
1782333931.121664,1839
1782333931.1229382,1851
1782333931.1229398,1852
1782333931.124207,1851
1782333931.125472,1851
1782333931.126752,1839
1782333931.1267588,1851
1782333931.1280398,1847
1782333931.129329,1856
1782333931.130618,1863
1782333931.131903,1854
1782333931.1319091,1850
1782333931.1331751,1839
1782333931.134621,1844
1782333931.145836,1874
1782333931.1458392,1852
1782333931.1458402,1854
1782333931.1458402,1867
1782333931.145841,1855
1782333931.1458418,1850
1782333931.1458418,1859
1782333931.145843,1868
1782333931.145844,1867
1782333931.145845,1843
1782333931.1458461,1833
1782333931.145847,1850
1782333931.1471202,1865
1782333931.150081,1847
1782333931.150084,1839
1782333931.1500852,1844
1782333931.1513522,1863
1782333931.1526341,1852
1782333931.153923,1839
1782333931.15393,1828
1782333931.155212,1828
1782333931.1564941,1830
1782333931.157778,1834
1782333931.157784,1834
1782333931.15907,1844
1782333931.1603498,1856
1782333931.161633,1862
1782333931.1629188,1855
1782333931.1629262,1859
1782333931.164294,1867
1782333931.1748621,1854
1782333931.174865,1849
1782333931.174866,1846
