timestamp	ch1	ch2	ch3
00:00:00.000	1.295971	1.308425	1.298168
00:00:00.000	1.306960	1.314286	1.298168
00:00:00.000	1.305495	1.317949	1.300366
00:00:00.000	1.305495	1.313553	1.293040
00:00:00.001	1.303297	1.316484	1.295971
00:00:00.001	1.306960	1.316484	1.295971
00:00:00.001	1.310623	1.320147	1.298901
00:00:00.002	1.309158	1.314286	1.298901
00:00:00.002	1.309158	1.306960	1.304762
00:00:00.003	1.308425	1.306960	1.309158
00:00:00.003	1.306960	1.304762	1.307692
00:00:00.003	1.312088	1.313553	1.315018
00:00:00.004	1.322344	1.320147	1.316484
00:00:00.004	1.306960	1.304029	1.303297
00:00:00.004	1.326740	1.312821	1.316484
00:00:00.005	1.316484	1.298168	1.309158
00:00:00.005	1.308425	1.293040	1.303297
00:00:00.005	1.317949	1.300366	1.300366
00:00:00.006	1.296703	1.302564	1.294505
00:00:00.006	1.301832	1.286447	1.303297
00:00:00.006	1.300366	1.275458	1.291575
00:00:00.007	1.306960	1.298168	1.294505
00:00:00.007	1.306227	1.307692	1.298168
00:00:00.008	1.288645	1.306960	1.293040
00:00:00.008	1.306227	1.312088	1.302564
00:00:00.008	1.310623	1.311355	1.301832
00:00:00.009	1.314286	1.310623	1.311355
00:00:00.009	1.307692	1.300366	1.306960
00:00:00.009	1.303297	1.287179	1.297436
00:00:00.010	1.317949	1.304762	1.319414
00:00:00.010	1.314286	1.298168	1.306960
00:00:00.010	1.310623	1.303297	1.312821
00:00:00.011	1.310623	1.306227	1.309890
00:00:00.011	1.300366	1.297436	1.297436
00:00:00.012	1.293773	1.295971	1.293773
00:00:00.012	1.304762	1.309890	1.290110
00:00:00.012	1.298168	1.307692	1.302564
00:00:00.013	1.304029	1.309158	1.296703
00:00:00.013	1.303297	1.303297	1.290110
00:00:00.013	1.312088	1.304029	1.295238
00:00:00.014	1.306960	1.308425	1.283516
00:00:00.014	1.307692	1.367033	1.300366
00:00:00.014	1.311355	1.357509	1.306960
00:00:00.015	1.313553	1.325275	1.300366
00:00:00.015	1.317949	1.297436	1.313553
00:00:00.016	1.318681	1.267399	1.312088
00:00:00.016	1.322344	1.249817	1.318681
00:00:00.016	1.309158	1.240293	1.313553
00:00:00.017	1.315018	1.267399	1.313553
00:00:00.017	1.319414	1.263736	1.308425
00:00:00.049	1.306227	1.264469	1.301832
00:00:00.049	1.297436	1.302564	1.298168
00:00:00.050	1.298901	1.320147	1.297436
00:00:00.050	1.294505	1.310623	1.293040
00:00:00.050	1.314286	1.320147	1.302564
00:00:00.051	1.305495	1.306227	1.294505
00:00:00.051	1.308425	1.304029	1.306960
00:00:00.052	1.304762	1.307692	1.297436
00:00:00.052	1.304029	1.310623	1.291575
00:00:00.053	1.307692	1.327473	1.301832
00:00:00.053	1.312088	1.315751	1.304029
00:00:00.053	1.317216	1.326007	1.314286
00:00:00.053	1.315751	1.320879	1.316484
00:00:00.054	1.300366	1.297436	1.309890
00:00:00.054	1.309158	1.292308	1.301832
00:00:00.054	1.308425	1.272527	1.315751
00:00:00.055	1.307692	1.268864	1.300366
00:00:00.055	1.316484	1.291575	1.305495
00:00:00.056	1.298901	1.306227	1.287912
00:00:00.057	1.315751	1.320147	1.300366
00:00:00.057	1.306227	1.325275	1.287179
00:00:00.057	1.304762	1.339194	1.295238
00:00:00.057	1.300366	1.347253	1.282051
00:00:00.057	1.289377	1.320147	1.276923
00:00:00.059	1.294505	1.306960	1.298901
00:00:00.059	1.294505	1.284982	1.298168
00:00:00.059	1.307692	1.288645	1.308425
00:00:00.059	1.312088	1.295238	1.313553
00:00:00.060	1.306227	1.291575	1.304762
00:00:00.060	1.305495	1.304762	1.302564
00:00:00.060	1.324542	1.316484	1.319414
00:00:00.060	1.317949	1.298168	1.311355
00:00:00.061	1.314286	1.286447	1.311355
00:00:00.064	1.311355	1.295238	1.303297
00:00:00.064	1.303297	1.299634	1.298901
00:00:00.064	1.314286	1.312821	1.304762
00:00:00.064	1.317216	1.301832	1.296703
00:00:00.064	1.312088	1.304762	1.295238
00:00:00.064	1.314286	1.309158	1.292308
00:00:00.064	1.306227	1.289377	1.283516
00:00:00.064	1.320147	1.282051	1.297436
00:00:00.064	1.313553	1.276923	1.300366
00:00:00.064	1.315751	1.313553	1.307692
00:00:00.064	1.309890	1.344322	1.314286
00:00:00.065	1.304762	1.339194	1.309890
00:00:00.065	1.312088	1.330403	1.318681
00:00:00.066	1.303297	1.279121	1.306227
00:00:00.066	1.312088	1.277656	1.315018
00:00:00.066	1.323810	1.301099	1.305495
00:00:00.067	1.312088	1.306960	1.303297
00:00:00.099	1.320879	1.325275	1.311355
00:00:00.099	1.319414	1.312821	1.311355
00:00:00.100	1.307692	1.283516	1.304762
00:00:00.100	1.306227	1.296703	1.298901
00:00:00.100	1.287912	1.292308	1.284982
00:00:00.101	1.295971	1.304029	1.298168
00:00:00.101	1.293773	1.317216	1.295238
00:00:00.101	1.290110	1.359707	1.300366
00:00:00.102	1.304029	1.349451	1.300366
00:00:00.102	1.293773	1.313553	1.299634
00:00:00.102	1.310623	1.311355	1.306227
00:00:00.103	1.321612	1.304029	1.308425
00:00:00.103	1.315018	1.275458	1.309890
00:00:00.103	1.325275	1.268132	1.313553
00:00:00.104	1.317216	1.249084	1.315018
00:00:00.104	1.308425	1.245421	1.318681
00:00:00.105	1.314286	1.265934	1.307692
00:00:00.105	1.322344	1.298901	1.308425
00:00:00.105	1.307692	1.305495	1.304029
00:00:00.106	1.301832	1.312088	1.298168
00:00:00.106	1.302564	1.330403	1.300366
00:00:00.106	1.301832	1.339194	1.297436
00:00:00.107	1.304762	1.326007	1.283516
00:00:00.107	1.306227	1.324542	1.300366
00:00:00.107	1.301832	1.320147	1.293040
00:00:00.108	1.291575	1.310623	1.300366
00:00:00.108	1.299634	1.317949	1.297436
00:00:00.108	1.309158	1.313553	1.305495
00:00:00.109	1.320147	1.317216	1.308425
00:00:00.109	1.331136	1.343590	1.317216
00:00:00.110	1.328205	1.329670	1.307692
00:00:00.110	1.328205	1.303297	1.318681
00:00:00.110	1.325275	1.296703	1.317216
00:00:00.111	1.326740	1.287179	1.315018
00:00:00.111	1.328205	1.282784	1.306227
00:00:00.111	1.312088	1.287179	1.297436
00:00:00.112	1.321612	1.299634	1.292308
00:00:00.112	1.319414	1.289377	1.293040
00:00:00.112	1.307692	1.294505	1.298168
00:00:00.113	1.298901	1.312088	1.299634
00:00:00.113	1.287912	1.317216	1.293773
00:00:00.113	1.278388	1.315018	1.294505
00:00:00.114	1.256410	1.293040	1.290842
00:00:00.114	1.253480	1.264469	1.294505
00:00:00.115	1.260073	1.287179	1.306960
00:00:00.115	1.287912	1.304029	1.295971
00:00:00.115	1.318681	1.315018	1.312821
00:00:00.116	1.331868	1.306227	1.317216
00:00:00.116	1.317949	1.298168	1.307692
00:00:00.116	1.328938	1.304762	1.312088
00:00:00.149	1.326007	1.302564	1.306227
00:00:00.149	1.319414	1.294505	1.294505
00:00:00.149	1.321612	1.307692	1.303297
00:00:00.150	1.315018	1.304029	1.298901
00:00:00.150	1.306960	1.307692	1.290842
00:00:00.150	1.307692	1.323810	1.288645
00:00:00.153	1.313553	1.326007	1.300366
00:00:00.153	1.306227	1.323810	1.296703
00:00:00.153	1.306227	1.318681	1.304029
00:00:00.153	1.310623	1.330403	1.308425
00:00:00.153	1.315018	1.333333	1.310623
00:00:00.153	1.323077	1.324542	1.314286
00:00:00.154	1.322344	1.304029	1.317949
00:00:00.154	1.315751	1.279121	1.312821
00:00:00.155	1.314286	1.274725	1.314286
00:00:00.155	1.310623	1.268864	1.306227
00:00:00.155	1.315751	1.263004	1.310623
00:00:00.155	1.295971	1.237363	1.295971
00:00:00.155	1.313553	1.265934	1.295238
00:00:00.155	1.300366	1.287912	1.300366
00:00:00.159	1.306227	1.314286	1.295971
00:00:00.159	1.290842	1.312088	1.289377
00:00:00.159	1.309158	1.327473	1.295238
00:00:00.159	1.305495	1.322344	1.295238
00:00:00.159	1.302564	1.327473	1.302564
00:00:00.159	1.315751	1.346520	1.306960
00:00:00.159	1.293040	1.334066	1.297436
00:00:00.159	1.312088	1.334066	1.304762
00:00:00.159	1.318681	1.324542	1.316484
00:00:00.159	1.317216	1.306227	1.313553
00:00:00.159	1.312088	1.282784	1.312088
00:00:00.160	1.304762	1.280586	1.313553
00:00:00.161	1.301832	1.282784	1.312821
00:00:00.161	1.311355	1.286447	1.315751
00:00:00.161	1.318681	1.332601	1.312088
00:00:00.161	1.306227	1.329670	1.289377
00:00:00.161	1.315751	1.326740	1.302564
00:00:00.162	1.303297	1.291575	1.290842
00:00:00.162	1.306960	1.287912	1.295238
00:00:00.162	1.305495	1.276190	1.293773
00:00:00.163	1.304762	1.275458	1.296703
00:00:00.163	1.309890	1.266667	1.301832
00:00:00.164	1.310623	1.258608	1.303297
00:00:00.164	1.309158	1.291575	1.304029
00:00:00.164	1.308425	1.309890	1.308425
00:00:00.165	1.307692	1.348718	1.309890
00:00:00.165	1.320147	1.330403	1.310623
00:00:00.165	1.312821	1.300366	1.309158
00:00:00.166	1.306960	1.288645	1.317216
00:00:00.166	1.309158	1.300366	1.314286
00:00:00.198	1.310623	1.293773	1.304029
00:00:00.199	1.300366	1.292308	1.300366
00:00:00.199	1.313553	1.306960	1.300366
00:00:00.199	1.301099	1.306960	1.298901
00:00:00.200	1.309158	1.341392	1.303297
00:00:00.200	1.300366	1.364103	1.297436
00:00:00.200	1.305495	1.356777	1.295971
00:00:00.201	1.319414	1.341392	1.291575
00:00:00.201	1.316484	1.307692	1.295971
00:00:00.201	1.321612	1.315018	1.306227
00:00:00.202	1.317949	1.297436	1.306960
00:00:00.202	1.320147	1.290842	1.309158
00:00:00.203	1.320147	1.273993	1.310623
00:00:00.203	1.315018	1.267399	1.315018
00:00:00.203	1.335531	1.271795	1.317949
00:00:00.205	1.319414	1.260806	1.300366
00:00:00.205	1.320147	1.286447	1.307692
00:00:00.205	1.312821	1.295971	1.304762
00:00:00.205	1.305495	1.293040	1.303297
00:00:00.205	1.294505	1.312088	1.302564
00:00:00.205	1.265934	1.312088	1.293040
00:00:00.206	1.288645	1.334799	1.299634
00:00:00.206	1.285714	1.347253	1.296703
00:00:00.207	1.287912	1.338462	1.298168
00:00:00.207	1.293773	1.336264	1.294505
00:00:00.207	1.288645	1.327473	1.293773
00:00:00.208	1.311355	1.324542	1.305495
00:00:00.208	1.326740	1.301832	1.307692
00:00:00.208	1.321612	1.291575	1.312821
00:00:00.209	1.308425	1.270330	1.306227
00:00:00.209	1.317216	1.241758	1.311355
00:00:00.209	1.317949	1.239560	1.313553
00:00:00.210	1.309890	1.250549	1.299634
00:00:00.210	1.309158	1.279121	1.306960
00:00:00.210	1.315751	1.315018	1.303297
00:00:00.211	1.313553	1.344322	1.306960
00:00:00.211	1.312088	1.356044	1.309890
00:00:00.212	1.311355	1.339927	1.296703
00:00:00.212	1.310623	1.334799	1.300366
00:00:00.212	1.316484	1.320879	1.297436
00:00:00.213	1.326007	1.315751	1.306227
00:00:00.213	1.342125	1.342125	1.309158
00:00:00.213	1.327473	1.370696	1.300366
00:00:00.214	1.328205	1.350183	1.308425
00:00:00.215	1.317949	1.325275	1.307692
00:00:00.215	1.306227	1.279853	1.294505
00:00:00.215	1.313553	1.265934	1.310623
00:00:00.215	1.304762	1.265201	1.306960
00:00:00.215	1.280586	1.252015	1.298901
00:00:00.220	1.294505	1.258608	1.312821
00:00:00.248	1.301099	1.289377	1.307692
00:00:00.248	1.298901	1.292308	1.312088
00:00:00.251	1.297436	1.281319	1.298901
00:00:00.251	1.289377	1.283516	1.294505
00:00:00.251	1.300366	1.268132	1.299634
00:00:00.251	1.294505	1.256410	1.291575
00:00:00.251	1.300366	1.294505	1.299634
00:00:00.251	1.304029	1.305495	1.297436
00:00:00.251	1.317216	1.315018	1.304029
00:00:00.251	1.341392	1.327473	1.310623
00:00:00.255	1.333333	1.347253	1.309158
00:00:00.255	1.329670	1.351648	1.317216
00:00:00.255	1.309158	1.349451	1.300366
00:00:00.255	1.309890	1.335531	1.316484
00:00:00.255	1.318681	1.312821	1.320147
00:00:00.255	1.320879	1.279853	1.315018
00:00:00.255	1.316484	1.264469	1.317216
00:00:00.255	1.290842	1.260806	1.308425
00:00:00.255	1.311355	1.287912	1.306227
00:00:00.255	1.320147	1.289377	1.291575
00:00:00.255	1.315751	1.306960	1.297436
00:00:00.256	1.334066	1.334066	1.293040
00:00:00.257	1.339194	1.350183	1.301832
00:00:00.257	1.328205	1.349451	1.291575
00:00:00.257	1.314286	1.324542	1.288645
00:00:00.257	1.312088	1.317949	1.287179
00:00:00.257	1.304029	1.312088	1.300366
00:00:00.258	1.284249	1.301099	1.306227
00:00:00.258	1.251282	1.282784	1.303297
00:00:00.258	1.224908	1.280586	1.291575
00:00:00.259	1.232234	1.309158	1.307692
00:00:00.259	1.239560	1.301099	1.301099
00:00:00.259	1.286447	1.306960	1.317216
00:00:00.260	1.317216	1.312088	1.317216
00:00:00.260	1.323810	1.300366	1.312088
00:00:00.261	1.340659	1.305495	1.311355
00:00:00.261	1.332601	1.287912	1.289377
00:00:00.261	1.337729	1.282051	1.304029
00:00:00.262	1.328205	1.276190	1.290110
00:00:00.262	1.325275	1.300366	1.296703
00:00:00.262	1.317216	1.309890	1.300366
00:00:00.263	1.318681	1.306227	1.297436
00:00:00.263	1.320147	1.317216	1.300366
00:00:00.263	1.321612	1.314286	1.300366
00:00:00.264	1.315751	1.315751	1.311355
00:00:00.264	1.304762	1.299634	1.306227
00:00:00.264	1.306227	1.295238	1.306960
00:00:00.265	1.313553	1.302564	1.316484
00:00:00.265	1.312821	1.309890	1.315018
00:00:00.266	1.321612	1.305495	1.315018
00:00:00.298	1.323810	1.301099	1.312088
00:00:00.298	1.315018	1.304029	1.309158
00:00:00.298	1.295238	1.304029	1.295971
00:00:00.299	1.293773	1.330403	1.289377
00:00:00.299	1.314286	1.373626	1.304762
00:00:00.300	1.312821	1.395604	1.306960
00:00:00.300	1.309890	1.350916	1.297436
00:00:00.300	1.315018	1.323810	1.296703
00:00:00.301	1.298901	1.290842	1.290842
00:00:00.301	1.309158	1.275458	1.304762
00:00:00.301	1.312088	1.257875	1.300366
00:00:00.302	1.310623	1.238095	1.308425
00:00:00.302	1.306227	1.213187	1.302564
00:00:00.302	1.291575	1.180220	1.302564
00:00:00.303	1.300366	1.238828	1.309158
00:00:00.303	1.298901	1.295971	1.308425
00:00:00.303	1.298168	1.301099	1.304029
00:00:00.304	1.312088	1.300366	1.300366
00:00:00.304	1.319414	1.295238	1.314286
00:00:00.305	1.303297	1.301099	1.306960
00:00:00.305	1.299634	1.312821	1.297436
00:00:00.305	1.304029	1.324542	1.288645
00:00:00.306	1.309158	1.339927	1.300366
00:00:00.306	1.304762	1.339194	1.291575
00:00:00.306	1.293773	1.349451	1.295971
00:00:00.307	1.289377	1.331868	1.290842
00:00:00.307	1.294505	1.327473	1.296703
00:00:00.307	1.317216	1.331868	1.312821
00:00:00.308	1.323810	1.331868	1.312088
00:00:00.309	1.339927	1.307692	1.308425
00:00:00.309	1.339194	1.305495	1.317216
00:00:00.309	1.321612	1.282051	1.315018
00:00:00.309	1.304029	1.272527	1.304029
00:00:00.310	1.304029	1.293773	1.318681
00:00:00.310	1.300366	1.295971	1.298901
00:00:00.310	1.285714	1.307692	1.306227
00:00:00.311	1.278388	1.327473	1.298901
00:00:00.311	1.282784	1.332601	1.298901
00:00:00.311	1.281319	1.323077	1.298168
00:00:00.313	1.291575	1.317216	1.284249
00:00:00.313	1.295971	1.331136	1.290842
00:00:00.313	1.311355	1.318681	1.293773
00:00:00.313	1.328205	1.302564	1.298168
00:00:00.313	1.361172	1.260806	1.299634
00:00:00.313	1.343590	1.249084	1.310623
00:00:00.316	1.315018	1.248352	1.306960
00:00:00.316	1.319414	1.285714	1.312088
00:00:00.316	1.317216	1.283516	1.304029
00:00:00.316	1.318681	1.293773	1.312088
00:00:00.316	1.320147	1.301099	1.311355
00:00:00.347	1.320147	1.324542	1.308425
00:00:00.351	1.308425	1.326740	1.302564
00:00:00.351	1.309158	1.326007	1.300366
00:00:00.351	1.290110	1.320147	1.312088
00:00:00.351	1.311355	1.338462	1.306227
00:00:00.351	1.320879	1.345055	1.300366
00:00:00.351	1.317949	1.317949	1.287912
00:00:00.351	1.337729	1.321612	1.295971
00:00:00.351	1.320147	1.289377	1.293773
00:00:00.351	1.310623	1.276923	1.308425
00:00:00.351	1.288645	1.267399	1.290842
00:00:00.351	1.271062	1.284249	1.300366
00:00:00.353	1.241026	1.295971	1.306227
00:00:00.353	1.205861	1.288645	1.297436
00:00:00.353	1.266667	1.292308	1.304762
00:00:00.353	1.309158	1.290110	1.306227
00:00:00.353	1.334799	1.293773	1.309890
00:00:00.354	1.327473	1.299634	1.304029
00:00:00.354	1.334066	1.315751	1.314286
00:00:00.354	1.318681	1.296703	1.300366
00:00:00.355	1.325275	1.300366	1.306227
00:00:00.355	1.315751	1.294505	1.293040
00:00:00.355	1.306227	1.313553	1.299634
00:00:00.356	1.310623	1.321612	1.293040
00:00:00.356	1.299634	1.305495	1.287179
00:00:00.356	1.308425	1.317216	1.297436
00:00:00.357	1.323810	1.317949	1.300366
00:00:00.357	1.329670	1.312088	1.309890
00:00:00.357	1.328205	1.308425	1.306227
00:00:00.358	1.327473	1.306960	1.317216
00:00:00.358	1.323077	1.306960	1.310623
00:00:00.359	1.324542	1.304762	1.309890
00:00:00.359	1.323077	1.300366	1.313553
00:00:00.359	1.309890	1.309890	1.314286
00:00:00.360	1.297436	1.304029	1.312821
00:00:00.360	1.296703	1.315751	1.310623
00:00:00.361	1.295238	1.314286	1.303297
00:00:00.361	1.287179	1.309158	1.300366
00:00:00.361	1.298168	1.303297	1.295238
00:00:00.361	1.290110	1.287912	1.287179
00:00:00.362	1.303297	1.298901	1.293040
00:00:00.362	1.315018	1.298901	1.291575
00:00:00.362	1.313553	1.298168	1.289377
00:00:00.363	1.312821	1.301099	1.302564
00:00:00.363	1.306227	1.300366	1.304029
00:00:00.364	1.304762	1.298168	1.306227
00:00:00.364	1.331136	1.309158	1.314286
00:00:00.364	1.325275	1.305495	1.314286
00:00:00.365	1.326007	1.300366	1.322344
00:00:00.365	1.320879	1.295971	1.317949
00:00:00.397	1.306227	1.289377	1.313553
00:00:00.398	1.308425	1.300366	1.309890
00:00:00.398	1.312088	1.312821	1.305495
00:00:00.398	1.305495	1.320879	1.309890
00:00:00.399	1.300366	1.320879	1.299634
00:00:00.399	1.299634	1.315751	1.295238
00:00:00.399	1.309158	1.316484	1.290842
00:00:00.400	1.315751	1.321612	1.305495
00:00:00.400	1.313553	1.310623	1.299634
00:00:00.400	1.295971	1.298901	1.289377
00:00:00.401	1.300366	1.304029	1.298168
00:00:00.401	1.306960	1.306227	1.306960
00:00:00.401	1.310623	1.292308	1.297436
00:00:00.402	1.312088	1.300366	1.312088
00:00:00.402	1.315018	1.301099	1.306227
00:00:00.403	1.286447	1.287912	1.305495
00:00:00.403	1.303297	1.296703	1.309890
00:00:00.403	1.312088	1.284982	1.306227
00:00:00.404	1.309890	1.296703	1.311355
00:00:00.404	1.305495	1.299634	1.300366
00:00:00.404	1.315751	1.303297	1.304029
00:00:00.405	1.309890	1.312088	1.301832
00:00:00.405	1.313553	1.311355	1.299634
00:00:00.405	1.309890	1.322344	1.300366
00:00:00.406	1.306227	1.318681	1.295238
00:00:00.406	1.300366	1.320147	1.290110
00:00:00.406	1.317216	1.337729	1.299634
00:00:00.408	1.320879	1.354579	1.302564
00:00:00.408	1.315751	1.341392	1.309890
00:00:00.408	1.318681	1.317216	1.306227
00:00:00.408	1.306960	1.278388	1.296703
00:00:00.408	1.313553	1.279121	1.317949
00:00:00.410	1.312821	1.261538	1.304029
00:00:00.410	1.306227	1.279853	1.317216
00:00:00.410	1.283516	1.259341	1.300366
00:00:00.410	1.293040	1.246886	1.298168
00:00:00.410	1.302564	1.279853	1.304762
00:00:00.410	1.284982	1.302564	1.298901
00:00:00.411	1.279853	1.316484	1.299634
00:00:00.411	1.307692	1.311355	1.298901
00:00:00.415	1.299634	1.299634	1.291575
00:00:00.415	1.322344	1.315751	1.294505
00:00:00.415	1.330403	1.324542	1.301832
00:00:00.415	1.327473	1.323810	1.295238
00:00:00.415	1.315751	1.317216	1.302564
00:00:00.415	1.308425	1.298901	1.304029
00:00:00.415	1.309890	1.288645	1.307692
00:00:00.415	1.298901	1.279121	1.300366
00:00:00.415	1.309158	1.286447	1.300366
00:00:00.415	1.320879	1.298168	1.317949
00:00:00.447	1.315018	1.297436	1.310623
00:00:00.447	1.311355	1.284982	1.310623
00:00:00.448	1.325275	1.290842	1.304029
00:00:00.448	1.323810	1.304762	1.305495
00:00:00.448	1.317949	1.314286	1.310623
00:00:00.449	1.309890	1.318681	1.300366
00:00:00.449	1.294505	1.306960	1.287179
00:00:00.449	1.304029	1.328205	1.296703
00:00:00.450	1.302564	1.322344	1.280586
00:00:00.450	1.304762	1.317216	1.282784
00:00:00.450	1.316484	1.314286	1.300366
00:00:00.451	1.290110	1.305495	1.303297
00:00:00.451	1.289377	1.300366	1.309158
00:00:00.452	1.312088	1.295971	1.309890
00:00:00.452	1.301832	1.273260	1.306960
00:00:00.452	1.308425	1.273993	1.317216
00:00:00.453	1.280586	1.272527	1.316484
00:00:00.453	1.274725	1.290110	1.312088
00:00:00.453	1.309890	1.308425	1.317216
00:00:00.454	1.331868	1.299634	1.309890
00:00:00.454	1.328205	1.304762	1.307692
00:00:00.454	1.322344	1.326007	1.300366
00:00:00.455	1.310623	1.332601	1.296703
00:00:00.455	1.315751	1.349451	1.295971
00:00:00.455	1.294505	1.331136	1.282784
00:00:00.456	1.285714	1.323810	1.286447
00:00:00.456	1.313553	1.322344	1.298168
00:00:00.457	1.307692	1.319414	1.303297
00:00:00.457	1.310623	1.315751	1.308425
00:00:00.457	1.316484	1.300366	1.310623
00:00:00.458	1.291575	1.279853	1.299634
00:00:00.458	1.321612	1.293773	1.319414
00:00:00.458	1.325275	1.293773	1.318681
00:00:00.459	1.312088	1.288645	1.311355
00:00:00.459	1.320879	1.298168	1.320879
00:00:00.459	1.309158	1.286447	1.299634
00:00:00.460	1.304029	1.290842	1.305495
00:00:00.460	1.303297	1.282051	1.302564
00:00:00.461	1.296703	1.286447	1.301832
00:00:00.461	1.301832	1.312088	1.296703
00:00:00.461	1.309890	1.330403	1.297436
00:00:00.462	1.306227	1.327473	1.287912
00:00:00.462	1.336996	1.326007	1.303297
00:00:00.462	1.343590	1.313553	1.297436
00:00:00.463	1.361172	1.311355	1.298168
00:00:00.463	1.355311	1.310623	1.306227
00:00:00.463	1.334799	1.312088	1.318681
00:00:00.464	1.300366	1.303297	1.317216
00:00:00.464	1.284982	1.300366	1.315018
00:00:00.464	1.276190	1.304762	1.306227
00:00:00.497	1.279853	1.305495	1.316484
00:00:00.497	1.294505	1.297436	1.311355
00:00:00.497	1.285714	1.304029	1.311355
00:00:00.498	1.306227	1.306227	1.308425
00:00:00.498	1.316484	1.294505	1.295238
00:00:00.498	1.331136	1.307692	1.293040
00:00:00.499	1.327473	1.307692	1.289377
00:00:00.499	1.292308	1.295238	1.287179
00:00:00.499	1.288645	1.309158	1.296703
00:00:00.500	1.292308	1.312088	1.295971
00:00:00.500	1.287179	1.316484	1.298901
00:00:00.501	1.277656	1.316484	1.303297
00:00:00.501	1.281319	1.303297	1.304029
00:00:00.501	1.309158	1.303297	1.312821
00:00:00.502	1.328938	1.309158	1.319414
00:00:00.502	1.317949	1.292308	1.306960
00:00:00.502	1.323810	1.300366	1.321612
00:00:00.503	1.323077	1.295238	1.311355
00:00:00.503	1.312088	1.290842	1.304762
00:00:00.503	1.317216	1.329670	1.296703
00:00:00.504	1.320879	1.336264	1.295238
00:00:00.504	1.327473	1.335531	1.300366
00:00:00.505	1.327473	1.323810	1.304029
00:00:00.505	1.334799	1.294505	1.292308
00:00:00.505	1.347253	1.298168	1.309890
00:00:00.508	1.345055	1.294505	1.300366
00:00:00.508	1.334799	1.290110	1.298901
00:00:00.508	1.323077	1.300366	1.302564
00:00:00.508	1.283516	1.265934	1.285714
00:00:00.508	1.256410	1.261538	1.303297
00:00:00.508	1.230037	1.269597	1.299634
00:00:00.508	1.225641	1.273993	1.295971
00:00:00.508	1.236630	1.274725	1.299634
00:00:00.508	1.291575	1.287912	1.317949
00:00:00.512	1.347985	1.277656	1.304029
00:00:00.512	1.358974	1.289377	1.303297
00:00:00.512	1.344322	1.312821	1.312088
00:00:00.512	1.315751	1.322344	1.307692
00:00:00.512	1.295971	1.329670	1.308425
00:00:00.512	1.275458	1.331136	1.303297
00:00:00.512	1.294505	1.328938	1.300366
00:00:00.512	1.314286	1.326007	1.296703
00:00:00.512	1.323810	1.326007	1.296703
00:00:00.512	1.328205	1.320879	1.300366
00:00:00.512	1.335531	1.321612	1.306227
00:00:00.513	1.331136	1.312088	1.308425
00:00:00.513	1.317949	1.298901	1.304029
00:00:00.513	1.326740	1.311355	1.312088
00:00:00.514	1.323077	1.309158	1.307692
00:00:00.514	1.318681	1.296703	1.316484
00:00:00.546	1.300366	1.300366	1.313553
00:00:00.547	1.290842	1.290842	1.307692
00:00:00.547	1.287179	1.289377	1.303297
00:00:00.547	1.288645	1.302564	1.297436
00:00:00.548	1.304762	1.315751	1.303297
00:00:00.548	1.304029	1.310623	1.296703
00:00:00.548	1.315751	1.303297	1.297436
00:00:00.550	1.316484	1.306227	1.293773
00:00:00.550	1.320879	1.309890	1.290110
00:00:00.550	1.342857	1.309890	1.290842
00:00:00.550	1.342857	1.315751	1.300366
00:00:00.550	1.323810	1.319414	1.304762
00:00:00.551	1.278388	1.309890	1.303297
00:00:00.551	1.294505	1.312821	1.312821
00:00:00.551	1.295238	1.301832	1.316484
00:00:00.552	1.298168	1.295238	1.318681
00:00:00.552	1.294505	1.291575	1.317216
00:00:00.552	1.320879	1.296703	1.320879
00:00:00.553	1.317949	1.298168	1.315751
00:00:00.553	1.317216	1.305495	1.311355
00:00:00.554	1.311355	1.306227	1.305495
00:00:00.554	1.313553	1.304029	1.293040
00:00:00.554	1.303297	1.304029	1.304029
00:00:00.555	1.301832	1.310623	1.298168
00:00:00.555	1.297436	1.301832	1.292308
00:00:00.555	1.306227	1.318681	1.300366
00:00:00.556	1.306227	1.312821	1.291575
00:00:00.556	1.324542	1.309158	1.300366
00:00:00.556	1.311355	1.304762	1.300366
00:00:00.557	1.319414	1.304029	1.306960
00:00:00.557	1.320879	1.307692	1.312088
00:00:00.557	1.301832	1.294505	1.307692
00:00:00.558	1.299634	1.305495	1.317949
00:00:00.558	1.313553	1.312821	1.318681
00:00:00.559	1.304762	1.300366	1.302564
00:00:00.559	1.304029	1.309890	1.312088
00:00:00.559	1.300366	1.306227	1.305495
00:00:00.560	1.282784	1.296703	1.297436
00:00:00.560	1.303297	1.304029	1.299634
00:00:00.560	1.306227	1.291575	1.280586
00:00:00.561	1.306227	1.310623	1.295238
00:00:00.561	1.309158	1.316484	1.292308
00:00:00.561	1.308425	1.307692	1.286447
00:00:00.562	1.314286	1.315018	1.310623
00:00:00.562	1.322344	1.315018	1.307692
00:00:00.562	1.319414	1.315751	1.297436
00:00:00.563	1.319414	1.308425	1.293773
00:00:00.563	1.302564	1.292308	1.321612
00:00:00.564	1.310623	1.297436	1.327473
00:00:00.564	1.306227	1.296703	1.312088
00:00:00.596	1.309158	1.295238	1.307692
00:00:00.596	1.312088	1.291575	1.304029
00:00:00.597	1.286447	1.287179	1.299634
00:00:00.597	1.303297	1.290110	1.294505
00:00:00.598	1.314286	1.302564	1.302564
00:00:00.598	1.311355	1.314286	1.304029
00:00:00.598	1.304762	1.315751	1.300366
00:00:00.599	1.295238	1.298168	1.280586
00:00:00.599	1.312821	1.318681	1.292308
00:00:00.599	1.309158	1.317216	1.295238
00:00:00.600	1.286447	1.307692	1.297436
00:00:00.600	1.295238	1.301099	1.285714
00:00:00.600	1.309158	1.298901	1.294505
00:00:00.601	1.303297	1.293040	1.300366
00:00:00.603	1.317216	1.298168	1.309890
00:00:00.603	1.314286	1.294505	1.315018
00:00:00.603	1.320879	1.293040	1.318681
00:00:00.603	1.318681	1.291575	1.304762
00:00:00.603	1.304762	1.293773	1.310623
00:00:00.603	1.309890	1.298168	1.308425
00:00:00.603	1.299634	1.294505	1.301832
00:00:00.604	1.314286	1.306227	1.305495
00:00:00.604	1.312088	1.311355	1.291575
00:00:00.604	1.307692	1.317216	1.295238
00:00:00.608	1.306227	1.312088	1.300366
00:00:00.608	1.298168	1.308425	1.295238
00:00:00.608	1.304029	1.301099	1.287179
00:00:00.608	1.297436	1.305495	1.295971
00:00:00.608	1.323077	1.320879	1.302564
00:00:00.608	1.320879	1.328205	1.306960
00:00:00.608	1.309158	1.319414	1.301832
00:00:00.608	1.327473	1.313553	1.312821
00:00:00.608	1.315751	1.290842	1.308425
00:00:00.608	1.318681	1.295238	1.314286
00:00:00.608	1.308425	1.293773	1.309158
00:00:00.609	1.293040	1.295971	1.310623
00:00:00.609	1.285714	1.287179	1.293773
00:00:00.609	1.292308	1.301832	1.302564
00:00:00.610	1.291575	1.297436	1.298168
00:00:00.610	1.295238	1.295971	1.306227
00:00:00.610	1.299634	1.301099	1.300366
00:00:00.611	1.304029	1.301832	1.295238
00:00:00.611	1.298901	1.293773	1.285714
00:00:00.611	1.319414	1.304029	1.306227
00:00:00.612	1.320147	1.296703	1.300366
00:00:00.612	1.317949	1.299634	1.304029
00:00:00.613	1.317949	1.306960	1.305495
00:00:00.613	1.323077	1.312821	1.311355
00:00:00.613	1.318681	1.313553	1.317949
00:00:00.614	1.315018	1.306227	1.306960
00:00:00.646	1.317216	1.298901	1.309890
00:00:00.646	1.334799	1.309890	1.317949
00:00:00.647	1.328205	1.298168	1.306227
00:00:00.647	1.320147	1.298168	1.296703
00:00:00.647	1.293773	1.309890	1.306227
00:00:00.648	1.273260	1.300366	1.293773
00:00:00.648	1.331136	1.306227	1.300366
00:00:00.648	1.315018	1.301099	1.293773
00:00:00.649	1.301099	1.299634	1.283516
00:00:00.649	1.316484	1.310623	1.300366
00:00:00.649	1.310623	1.306960	1.299634
00:00:00.650	1.312821	1.320147	1.303297
00:00:00.650	1.311355	1.318681	1.296703
00:00:00.650	1.304762	1.312088	1.313553
00:00:00.651	1.283516	1.315751	1.320879
00:00:00.651	1.289377	1.303297	1.311355
00:00:00.652	1.292308	1.303297	1.312088
00:00:00.652	1.306227	1.302564	1.305495
00:00:00.652	1.298901	1.293773	1.309158
00:00:00.653	1.305495	1.300366	1.308425
00:00:00.654	1.314286	1.302564	1.304029
00:00:00.654	1.309158	1.305495	1.304762
00:00:00.654	1.279853	1.304762	1.299634
00:00:00.654	1.309158	1.317216	1.305495
00:00:00.654	1.331136	1.313553	1.296703
00:00:00.655	1.340659	1.306227	1.291575
00:00:00.655	1.349451	1.315751	1.295971
00:00:00.655	1.335531	1.317949	1.299634
00:00:00.656	1.299634	1.305495	1.295238
00:00:00.656	1.304029	1.309158	1.303297
00:00:00.657	1.290110	1.310623	1.308425
00:00:00.657	1.276190	1.308425	1.303297
00:00:00.657	1.296703	1.306227	1.312821
00:00:00.658	1.306227	1.282784	1.310623
00:00:00.658	1.329670	1.288645	1.323077
00:00:00.658	1.324542	1.286447	1.312821
00:00:00.659	1.310623	1.290842	1.309158
00:00:00.659	1.315018	1.322344	1.306960
00:00:00.659	1.302564	1.326007	1.297436
00:00:00.660	1.303297	1.316484	1.298901
00:00:00.660	1.313553	1.307692	1.295971
00:00:00.660	1.309890	1.289377	1.294505
00:00:00.661	1.317949	1.283516	1.290842
00:00:00.661	1.311355	1.291575	1.300366
00:00:00.662	1.287179	1.274725	1.302564
00:00:00.662	1.292308	1.265201	1.303297
00:00:00.662	1.291575	1.271062	1.291575
00:00:00.664	1.306227	1.305495	1.306227
00:00:00.664	1.309158	1.319414	1.300366
00:00:00.664	1.313553	1.323077	1.311355
00:00:00.699	1.308425	1.291575	1.298901
00:00:00.699	1.320879	1.288645	1.311355
00:00:00.699	1.333333	1.308425	1.320879
00:00:00.699	1.340659	1.304029	1.305495
00:00:00.699	1.336264	1.308425	1.290842
00:00:00.699	1.319414	1.319414	1.290842
00:00:00.699	1.317216	1.319414	1.315018
00:00:00.699	1.243223	1.319414	1.317949
00:00:00.699	1.243956	1.319414	1.300366
00:00:00.699	1.279121	1.309158	1.273993
00:00:00.699	1.317216	1.315751	1.276190
00:00:00.699	1.331868	1.316484	1.279853
00:00:00.704	1.350916	1.315751	1.293773
00:00:00.704	1.351648	1.309158	1.314286
00:00:00.704	1.342857	1.300366	1.303297
00:00:00.704	1.326007	1.298168	1.314286
00:00:00.704	1.317216	1.292308	1.314286
00:00:00.704	1.306227	1.296703	1.320147
00:00:00.704	1.304029	1.300366	1.317216
00:00:00.704	1.292308	1.293040	1.306227
00:00:00.704	1.301832	1.296703	1.296703
00:00:00.704	1.294505	1.297436	1.308425
00:00:00.704	1.273993	1.305495	1.300366
00:00:00.704	1.261538	1.301832	1.290842
00:00:00.704	1.264469	1.313553	1.299634
00:00:00.704	1.298901	1.297436	1.279853
00:00:00.705	1.308425	1.299634	1.290110
00:00:00.706	1.325275	1.313553	1.298168
00:00:00.706	1.314286	1.312088	1.307692
00:00:00.706	1.309890	1.312088	1.304762
00:00:00.706	1.315018	1.311355	1.296703
00:00:00.707	1.298168	1.295971	1.297436
00:00:00.707	1.295971	1.300366	1.312088
00:00:00.707	1.310623	1.304762	1.318681
00:00:00.708	1.306227	1.291575	1.308425
00:00:00.708	1.317216	1.287179	1.317216
00:00:00.708	1.322344	1.291575	1.312821
00:00:00.709	1.311355	1.288645	1.307692
00:00:00.709	1.364835	1.299634	1.306227
00:00:00.709	1.363370	1.312088	1.297436
00:00:00.710	1.301099	1.306960	1.298168
00:00:00.710	1.289377	1.316484	1.293773
00:00:00.711	1.293773	1.320147	1.295238
00:00:00.711	1.273260	1.310623	1.277656
00:00:00.711	1.309158	1.312821	1.286447
00:00:00.712	1.323077	1.304762	1.299634
00:00:00.712	1.320147	1.316484	1.304029
00:00:00.712	1.320147	1.323810	1.318681
00:00:00.713	1.319414	1.315751	1.315018
00:00:00.713	1.308425	1.296703	1.306227
00:00:00.745	1.312821	1.301832	1.320147
00:00:00.746	1.309890	1.291575	1.314286
00:00:00.746	1.302564	1.285714	1.307692
00:00:00.746	1.303297	1.290110	1.311355
00:00:00.747	1.311355	1.276923	1.307692
00:00:00.747	1.301099	1.273993	1.302564
00:00:00.747	1.312088	1.302564	1.309158
00:00:00.748	1.293040	1.308425	1.298168
00:00:00.748	1.295971	1.323077	1.293773
00:00:00.748	1.301099	1.324542	1.287912
00:00:00.749	1.312088	1.326007	1.298168
00:00:00.749	1.315751	1.324542	1.308425
00:00:00.750	1.322344	1.315751	1.336264
00:00:00.750	1.307692	1.302564	1.299634
00:00:00.750	1.331868	1.312821	1.298901
00:00:00.751	1.339194	1.312821	1.302564
00:00:00.751	1.335531	1.302564	1.304762
00:00:00.751	1.317216	1.293773	1.345055
00:00:00.752	1.288645	1.287179	1.327473
00:00:00.752	1.254212	1.296703	1.348718
00:00:00.752	1.279853	1.300366	1.323810
00:00:00.753	1.292308	1.300366	1.294505
00:00:00.753	1.309158	1.312088	1.296703
00:00:00.753	1.326740	1.314286	1.280586
00:00:00.754	1.283516	1.304762	1.273993
00:00:00.754	1.357509	1.327473	1.271062
00:00:00.755	1.365568	1.324542	1.234432
00:00:00.755	1.317216	1.323077	1.249084
00:00:00.755	1.281319	1.331868	1.289377
00:00:00.756	1.287912	1.320147	1.306227
00:00:00.756	1.291575	1.307692	1.306960
00:00:00.756	1.279853	1.300366	1.314286
00:00:00.757	1.325275	1.304762	1.323810
00:00:00.757	1.308425	1.301832	1.335531
00:00:00.758	1.284982	1.301832	1.353846
00:00:00.758	1.299634	1.288645	1.365568
00:00:00.758	1.320147	1.271795	1.326007
00:00:00.758	1.334066	1.273260	1.303297
00:00:00.759	1.361172	1.291575	1.298901
00:00:00.759	1.347253	1.289377	1.287179
00:00:00.761	1.308425	1.284982	1.279121
00:00:00.761	1.321612	1.306227	1.293773
00:00:00.761	1.298901	1.316484	1.295971
00:00:00.761	1.273993	1.326740	1.298168
00:00:00.762	1.289377	1.324542	1.300366
00:00:00.762	1.296703	1.315018	1.300366
00:00:00.762	1.310623	1.318681	1.298168
00:00:00.764	1.301099	1.307692	1.295238
00:00:00.764	1.303297	1.295971	1.293773
00:00:00.764	1.297436	1.303297	1.304762
