timestamp	ch1	ch2	ch3
00:00:00.000	1.304029	1.306960	1.302564
00:00:00.000	1.309890	1.300366	1.302564
00:00:00.001	1.293040	1.293773	1.295971
00:00:00.001	1.304029	1.297436	1.312821
00:00:00.001	1.293773	1.293773	1.303297
00:00:00.002	1.299634	1.306960	1.308425
00:00:00.002	1.309158	1.315751	1.310623
00:00:00.002	1.298901	1.306227	1.296703
00:00:00.003	1.306227	1.314286	1.295971
00:00:00.003	1.333333	1.314286	1.302564
00:00:00.004	1.325275	1.304029	1.303297
00:00:00.004	1.315751	1.293040	1.287912
00:00:00.004	1.317216	1.311355	1.303297
00:00:00.005	1.317949	1.310623	1.303297
00:00:00.005	1.297436	1.299634	1.286447
00:00:00.005	1.314286	1.302564	1.302564
00:00:00.006	1.309158	1.300366	1.300366
00:00:00.006	1.300366	1.304029	1.300366
00:00:00.006	1.306960	1.319414	1.315751
00:00:00.007	1.286447	1.295971	1.303297
00:00:00.007	1.295971	1.309890	1.301832
00:00:00.007	1.301832	1.319414	1.315018
00:00:00.008	1.309890	1.298901	1.310623
00:00:00.008	1.309890	1.284249	1.306227
00:00:00.009	1.314286	1.293773	1.308425
00:00:00.009	1.315018	1.293040	1.309158
00:00:00.009	1.319414	1.295971	1.309890
00:00:00.010	1.314286	1.295971	1.300366
00:00:00.010	1.311355	1.306960	1.292308
00:00:00.010	1.309158	1.297436	1.297436
00:00:00.011	1.312088	1.312821	1.300366
00:00:00.011	1.319414	1.328205	1.302564
00:00:00.011	1.309158	1.328938	1.300366
00:00:00.012	1.317216	1.333333	1.310623
00:00:00.012	1.303297	1.308425	1.303297
00:00:00.013	1.314286	1.301832	1.306960
00:00:00.013	1.302564	1.301832	1.312821
00:00:00.013	1.304029	1.300366	1.315751
00:00:00.014	1.298168	1.290842	1.306227
00:00:00.014	1.291575	1.279853	1.306960
00:00:00.015	1.312088	1.294505	1.295238
00:00:00.015	1.312821	1.317216	1.311355
00:00:00.015	1.313553	1.292308	1.296703
00:00:00.015	1.326007	1.296703	1.308425
00:00:00.016	1.315018	1.331868	1.299634
00:00:00.016	1.302564	1.339927	1.295971
00:00:00.016	1.316484	1.336264	1.302564
00:00:00.017	1.308425	1.310623	1.299634
00:00:00.017	1.303297	1.284982	1.297436
00:00:00.018	1.312088	1.275458	1.294505
00:00:00.051	1.310623	1.273260	1.306960
00:00:00.051	1.306960	1.276923	1.309158
00:00:00.051	1.301099	1.271795	1.304762
00:00:00.051	1.302564	1.301832	1.307692
00:00:00.051	1.303297	1.333333	1.309158
00:00:00.051	1.305495	1.346520	1.317949
00:00:00.053	1.312088	1.336996	1.313553
00:00:00.053	1.305495	1.309158	1.298901
00:00:00.053	1.313553	1.295971	1.309158
00:00:00.053	1.325275	1.292308	1.307692
00:00:00.053	1.315018	1.292308	1.290110
00:00:00.054	1.323810	1.309158	1.300366
00:00:00.054	1.309158	1.306227	1.294505
00:00:00.054	1.314286	1.300366	1.291575
00:00:00.057	1.314286	1.287912	1.303297
00:00:00.057	1.312821	1.291575	1.300366
00:00:00.057	1.308425	1.286447	1.303297
00:00:00.057	1.307692	1.293773	1.310623
00:00:00.057	1.309158	1.309158	1.310623
00:00:00.057	1.298168	1.307692	1.300366
00:00:00.057	1.298901	1.317949	1.317216
00:00:00.057	1.296703	1.311355	1.311355
00:00:00.058	1.305495	1.308425	1.317216
00:00:00.058	1.314286	1.309890	1.314286
00:00:00.058	1.302564	1.300366	1.300366
00:00:00.059	1.309158	1.309158	1.300366
00:00:00.059	1.320147	1.320147	1.307692
00:00:00.059	1.311355	1.319414	1.299634
00:00:00.060	1.318681	1.324542	1.300366
00:00:00.060	1.315751	1.317216	1.300366
00:00:00.060	1.309890	1.306960	1.295971
00:00:00.061	1.307692	1.304029	1.295238
00:00:00.061	1.313553	1.306960	1.303297
00:00:00.061	1.312088	1.315751	1.306960
00:00:00.062	1.302564	1.315018	1.300366
00:00:00.062	1.308425	1.326007	1.309158
00:00:00.063	1.306227	1.306227	1.298901
00:00:00.063	1.298168	1.295238	1.307692
00:00:00.063	1.302564	1.284982	1.306960
00:00:00.064	1.311355	1.287912	1.315018
00:00:00.064	1.309158	1.294505	1.311355
00:00:00.064	1.312088	1.295238	1.305495
00:00:00.065	1.312088	1.298901	1.299634
00:00:00.065	1.312088	1.298901	1.301832
00:00:00.065	1.316484	1.312821	1.308425
00:00:00.066	1.311355	1.317949	1.303297
00:00:00.067	1.317949	1.317949	1.296703
00:00:00.067	1.312088	1.311355	1.296703
00:00:00.067	1.306227	1.297436	1.301832
00:00:00.067	1.303297	1.276190	1.300366
00:00:00.099	1.304762	1.289377	1.308425
00:00:00.100	1.310623	1.292308	1.309890
00:00:00.100	1.303297	1.287912	1.313553
00:00:00.100	1.313553	1.295971	1.320879
00:00:00.101	1.309158	1.298901	1.309158
00:00:00.101	1.304762	1.298901	1.309890
00:00:00.102	1.318681	1.298168	1.309158
00:00:00.102	1.300366	1.291575	1.293040
00:00:00.102	1.315751	1.318681	1.315751
00:00:00.103	1.306227	1.318681	1.300366
00:00:00.103	1.306227	1.317216	1.300366
00:00:00.103	1.306227	1.317949	1.300366
00:00:00.104	1.294505	1.317216	1.287912
00:00:00.104	1.312088	1.322344	1.296703
00:00:00.104	1.307692	1.307692	1.283516
00:00:00.105	1.311355	1.309158	1.302564
00:00:00.105	1.306960	1.290842	1.300366
00:00:00.105	1.306227	1.279121	1.298168
00:00:00.106	1.309890	1.293773	1.311355
00:00:00.106	1.312088	1.302564	1.306960
00:00:00.107	1.309158	1.300366	1.305495
00:00:00.107	1.306227	1.295971	1.309158
00:00:00.107	1.309158	1.300366	1.311355
00:00:00.108	1.315751	1.309158	1.313553
00:00:00.108	1.310623	1.323810	1.312821
00:00:00.108	1.315018	1.320879	1.317216
00:00:00.109	1.307692	1.300366	1.296703
00:00:00.109	1.298901	1.292308	1.290842
00:00:00.109	1.312821	1.306227	1.296703
00:00:00.110	1.319414	1.316484	1.302564
00:00:00.110	1.307692	1.313553	1.290842
00:00:00.110	1.301832	1.301832	1.289377
00:00:00.111	1.309158	1.314286	1.304762
00:00:00.111	1.306960	1.309890	1.305495
00:00:00.112	1.298168	1.301832	1.305495
00:00:00.112	1.298901	1.306960	1.311355
00:00:00.112	1.295971	1.305495	1.312821
00:00:00.113	1.289377	1.290110	1.300366
00:00:00.113	1.309158	1.320147	1.314286
00:00:00.113	1.314286	1.322344	1.312088
00:00:00.114	1.302564	1.302564	1.304029
00:00:00.114	1.304029	1.304029	1.306960
00:00:00.114	1.309890	1.317949	1.302564
00:00:00.115	1.307692	1.306227	1.298168
00:00:00.115	1.320147	1.301832	1.296703
00:00:00.115	1.317216	1.293773	1.298168
00:00:00.116	1.328938	1.287912	1.305495
00:00:00.116	1.324542	1.274725	1.305495
00:00:00.117	1.317949	1.279121	1.298168
00:00:00.117	1.301832	1.294505	1.298901
00:00:00.149	1.310623	1.317949	1.303297
00:00:00.149	1.304029	1.320147	1.303297
00:00:00.150	1.295238	1.302564	1.298901
00:00:00.151	1.310623	1.302564	1.312088
00:00:00.151	1.310623	1.292308	1.313553
00:00:00.151	1.307692	1.274725	1.294505
00:00:00.151	1.306227	1.281319	1.306227
00:00:00.153	1.312821	1.298901	1.320147
00:00:00.153	1.303297	1.300366	1.300366
00:00:00.153	1.298168	1.314286	1.304762
00:00:00.153	1.305495	1.313553	1.299634
00:00:00.153	1.310623	1.306960	1.295238
00:00:00.153	1.306227	1.310623	1.295971
00:00:00.155	1.318681	1.318681	1.295238
00:00:00.155	1.312088	1.317949	1.298168
00:00:00.155	1.304029	1.314286	1.296703
00:00:00.155	1.315018	1.313553	1.304029
00:00:00.155	1.315751	1.315018	1.304762
00:00:00.159	1.312088	1.315018	1.306960
00:00:00.159	1.315751	1.305495	1.312088
00:00:00.159	1.305495	1.302564	1.304762
00:00:00.159	1.304029	1.292308	1.297436
00:00:00.159	1.318681	1.301099	1.315751
00:00:00.159	1.323077	1.304029	1.323077
00:00:00.159	1.315751	1.289377	1.307692
00:00:00.159	1.322344	1.299634	1.309158
00:00:00.159	1.313553	1.301099	1.300366
00:00:00.159	1.303297	1.306227	1.301832
00:00:00.159	1.305495	1.320879	1.304762
00:00:00.159	1.296703	1.320879	1.300366
00:00:00.160	1.273993	1.306960	1.286447
00:00:00.160	1.300366	1.338462	1.296703
00:00:00.161	1.304762	1.334799	1.298168
00:00:00.161	1.296703	1.308425	1.290842
00:00:00.161	1.313553	1.312821	1.306960
00:00:00.162	1.313553	1.289377	1.304029
00:00:00.162	1.303297	1.286447	1.311355
00:00:00.162	1.294505	1.282051	1.314286
00:00:00.163	1.297436	1.281319	1.309890
00:00:00.163	1.309158	1.248352	1.300366
00:00:00.163	1.282051	1.270330	1.310623
00:00:00.164	1.267399	1.289377	1.306227
00:00:00.164	1.295238	1.312088	1.306960
00:00:00.164	1.330403	1.324542	1.302564
00:00:00.165	1.347253	1.312088	1.287912
00:00:00.165	1.369963	1.315018	1.289377
00:00:00.166	1.390476	1.326740	1.300366
00:00:00.166	1.373626	1.328938	1.300366
00:00:00.166	1.350183	1.315751	1.295971
00:00:00.167	1.317949	1.306960	1.309158
00:00:00.199	1.286447	1.316484	1.304762
00:00:00.199	1.254212	1.317949	1.309890
00:00:00.199	1.273993	1.317949	1.308425
00:00:00.200	1.279121	1.298168	1.307692
00:00:00.200	1.284982	1.276923	1.302564
00:00:00.201	1.287179	1.290842	1.311355
00:00:00.201	1.298901	1.300366	1.311355
00:00:00.201	1.293040	1.301832	1.299634
00:00:00.202	1.305495	1.308425	1.315018
00:00:00.202	1.325275	1.309890	1.312088
00:00:00.203	1.315018	1.295971	1.299634
00:00:00.203	1.295971	1.290842	1.294505
00:00:00.203	1.320147	1.333333	1.305495
00:00:00.203	1.318681	1.342125	1.295971
00:00:00.204	1.318681	1.340659	1.296703
00:00:00.204	1.339927	1.353846	1.300366
00:00:00.205	1.326740	1.309158	1.297436
00:00:00.205	1.315018	1.271795	1.306227
00:00:00.205	1.309158	1.268132	1.303297
00:00:00.206	1.308425	1.286447	1.308425
00:00:00.206	1.296703	1.271795	1.304762
00:00:00.206	1.294505	1.254945	1.312821
00:00:00.207	1.293773	1.249084	1.303297
00:00:00.207	1.294505	1.262271	1.304762
00:00:00.207	1.300366	1.287912	1.306227
00:00:00.208	1.304762	1.315751	1.305495
00:00:00.208	1.306227	1.326740	1.306227
00:00:00.208	1.316484	1.324542	1.304762
00:00:00.209	1.320879	1.320879	1.300366
00:00:00.209	1.319414	1.327473	1.300366
00:00:00.210	1.323077	1.331136	1.302564
00:00:00.210	1.316484	1.324542	1.304029
00:00:00.210	1.303297	1.304762	1.295238
00:00:00.211	1.306227	1.307692	1.304029
00:00:00.211	1.304029	1.304762	1.307692
00:00:00.211	1.293773	1.284249	1.290110
00:00:00.212	1.306960	1.298901	1.313553
00:00:00.212	1.307692	1.303297	1.312821
00:00:00.212	1.309158	1.303297	1.315018
00:00:00.213	1.320147	1.308425	1.314286
00:00:00.213	1.299634	1.296703	1.306227
00:00:00.213	1.305495	1.314286	1.305495
00:00:00.214	1.298168	1.313553	1.308425
00:00:00.214	1.303297	1.313553	1.295971
00:00:00.216	1.307692	1.312821	1.297436
00:00:00.216	1.319414	1.312821	1.296703
00:00:00.216	1.328938	1.324542	1.299634
00:00:00.216	1.323077	1.316484	1.291575
00:00:00.216	1.315018	1.311355	1.299634
00:00:00.216	1.317216	1.310623	1.305495
00:00:00.248	1.310623	1.294505	1.297436
00:00:00.250	1.299634	1.298168	1.306960
00:00:00.250	1.297436	1.279853	1.300366
00:00:00.250	1.319414	1.290842	1.300366
00:00:00.250	1.315018	1.290842	1.313553
00:00:00.250	1.313553	1.304029	1.319414
00:00:00.251	1.303297	1.291575	1.303297
00:00:00.251	1.314286	1.297436	1.317949
00:00:00.251	1.306960	1.298168	1.306227
00:00:00.255	1.297436	1.293040	1.294505
00:00:00.255	1.304762	1.306960	1.305495
00:00:00.255	1.313553	1.312821	1.301832
00:00:00.255	1.302564	1.309890	1.285714
00:00:00.255	1.312088	1.320147	1.287179
00:00:00.255	1.309158	1.306960	1.291575
00:00:00.255	1.312088	1.317216	1.304762
00:00:00.255	1.314286	1.304029	1.304762
00:00:00.255	1.294505	1.300366	1.306227
00:00:00.255	1.268864	1.293040	1.293040
00:00:00.255	1.277656	1.301099	1.297436
00:00:00.256	1.304029	1.308425	1.312821
00:00:00.256	1.316484	1.305495	1.312821
00:00:00.256	1.316484	1.298168	1.311355
00:00:00.257	1.303297	1.300366	1.306227
00:00:00.257	1.310623	1.315018	1.312088
00:00:00.257	1.308425	1.302564	1.311355
00:00:00.258	1.306227	1.297436	1.298901
00:00:00.258	1.310623	1.301832	1.307692
00:00:00.259	1.314286	1.300366	1.301832
00:00:00.259	1.304762	1.299634	1.295971
00:00:00.259	1.318681	1.304762	1.298901
00:00:00.260	1.316484	1.309158	1.294505
00:00:00.260	1.339927	1.315018	1.298901
00:00:00.260	1.319414	1.312821	1.302564
00:00:00.261	1.260806	1.308425	1.300366
00:00:00.261	1.271062	1.300366	1.298901
00:00:00.261	1.294505	1.306227	1.308425
00:00:00.262	1.316484	1.303297	1.304762
00:00:00.262	1.342125	1.304762	1.308425
00:00:00.262	1.368498	1.302564	1.312088
00:00:00.263	1.367766	1.304762	1.311355
00:00:00.263	1.354579	1.306960	1.309890
00:00:00.264	1.321612	1.305495	1.308425
00:00:00.264	1.279853	1.298168	1.299634
00:00:00.264	1.265201	1.309890	1.308425
00:00:00.265	1.295238	1.301832	1.302564
00:00:00.265	1.301832	1.292308	1.288645
00:00:00.265	1.322344	1.317216	1.304029
00:00:00.266	1.325275	1.312821	1.299634
00:00:00.266	1.318681	1.306227	1.298168
00:00:00.298	1.310623	1.304762	1.300366
00:00:00.299	1.300366	1.298168	1.300366
00:00:00.299	1.290110	1.317216	1.310623
00:00:00.299	1.292308	1.316484	1.303297
00:00:00.300	1.295238	1.311355	1.310623
00:00:00.300	1.297436	1.315751	1.307692
00:00:00.300	1.300366	1.316484	1.320879
00:00:00.301	1.313553	1.310623	1.312088
00:00:00.301	1.312088	1.301832	1.316484
00:00:00.301	1.313553	1.292308	1.309890
00:00:00.302	1.321612	1.289377	1.302564
00:00:00.302	1.315751	1.283516	1.300366
00:00:00.302	1.305495	1.289377	1.289377
00:00:00.303	1.325275	1.312088	1.306227
00:00:00.303	1.319414	1.306227	1.295971
00:00:00.304	1.302564	1.287912	1.285714
00:00:00.304	1.314286	1.306960	1.304029
00:00:00.304	1.315018	1.323077	1.303297
00:00:00.305	1.305495	1.340659	1.298168
00:00:00.305	1.312088	1.334066	1.311355
00:00:00.305	1.300366	1.298168	1.304029
00:00:00.306	1.301099	1.284982	1.312088
00:00:00.306	1.304762	1.274725	1.312088
00:00:00.306	1.304762	1.282051	1.313553
00:00:00.308	1.309158	1.294505	1.309890
00:00:00.308	1.306227	1.264469	1.312088
00:00:00.308	1.302564	1.261538	1.304029
00:00:00.308	1.304029	1.310623	1.292308
00:00:00.308	1.293773	1.315751	1.297436
00:00:00.309	1.308425	1.303297	1.296703
00:00:00.309	1.315751	1.302564	1.294505
00:00:00.309	1.309158	1.295971	1.303297
00:00:00.310	1.315018	1.305495	1.305495
00:00:00.310	1.313553	1.327473	1.298901
00:00:00.310	1.309158	1.337729	1.307692
00:00:00.311	1.320879	1.331868	1.309890
00:00:00.311	1.312088	1.318681	1.293773
00:00:00.311	1.291575	1.315751	1.303297
00:00:00.312	1.306960	1.328205	1.310623
00:00:00.312	1.303297	1.325275	1.309890
00:00:00.312	1.297436	1.299634	1.304762
00:00:00.315	1.302564	1.282051	1.310623
00:00:00.315	1.299634	1.271795	1.294505
00:00:00.315	1.308425	1.284982	1.300366
00:00:00.315	1.317216	1.305495	1.306227
00:00:00.315	1.318681	1.307692	1.306960
00:00:00.315	1.326007	1.312821	1.309158
00:00:00.315	1.317949	1.303297	1.295238
00:00:00.315	1.310623	1.306227	1.298901
00:00:00.319	1.317949	1.312088	1.303297
00:00:00.350	1.314286	1.310623	1.306960
00:00:00.350	1.293040	1.299634	1.306960
00:00:00.350	1.298168	1.298901	1.307692
00:00:00.350	1.304762	1.301099	1.309158
00:00:00.350	1.292308	1.293040	1.306227
00:00:00.350	1.301099	1.277656	1.294505
00:00:00.350	1.315018	1.290110	1.300366
00:00:00.350	1.314286	1.306227	1.307692
00:00:00.351	1.316484	1.308425	1.306227
00:00:00.351	1.299634	1.295238	1.297436
00:00:00.351	1.308425	1.300366	1.297436
00:00:00.352	1.323077	1.306227	1.303297
00:00:00.352	1.306227	1.301099	1.297436
00:00:00.353	1.320147	1.320147	1.301832
00:00:00.353	1.309890	1.315018	1.293040
00:00:00.353	1.308425	1.310623	1.295971
00:00:00.354	1.315751	1.312088	1.303297
00:00:00.354	1.311355	1.309890	1.300366
00:00:00.354	1.312088	1.309158	1.309158
00:00:00.355	1.309890	1.296703	1.305495
00:00:00.355	1.309158	1.296703	1.306227
00:00:00.355	1.297436	1.298168	1.304762
00:00:00.356	1.299634	1.308425	1.311355
00:00:00.356	1.300366	1.310623	1.316484
00:00:00.356	1.296703	1.288645	1.300366
00:00:00.357	1.326007	1.293773	1.298168
00:00:00.357	1.319414	1.298168	1.305495
00:00:00.358	1.312088	1.295238	1.303297
00:00:00.358	1.297436	1.286447	1.293040
00:00:00.358	1.294505	1.291575	1.290110
00:00:00.359	1.295238	1.298168	1.289377
00:00:00.360	1.312088	1.321612	1.299634
00:00:00.360	1.304029	1.317216	1.294505
00:00:00.360	1.309890	1.344322	1.306960
00:00:00.360	1.298168	1.334066	1.306227
00:00:00.360	1.287179	1.315751	1.304762
00:00:00.361	1.293040	1.302564	1.305495
00:00:00.361	1.300366	1.292308	1.304029
00:00:00.361	1.322344	1.283516	1.306960
00:00:00.362	1.326007	1.266667	1.297436
00:00:00.362	1.329670	1.268132	1.312821
00:00:00.363	1.331868	1.273993	1.315751
00:00:00.363	1.320879	1.271795	1.302564
00:00:00.363	1.327473	1.302564	1.307692
00:00:00.364	1.309158	1.299634	1.292308
00:00:00.364	1.315751	1.323810	1.304762
00:00:00.364	1.268132	1.311355	1.296703
00:00:00.365	1.276923	1.312821	1.300366
00:00:00.365	1.284982	1.315018	1.302564
00:00:00.365	1.302564	1.323077	1.294505
00:00:00.398	1.323810	1.332601	1.301832
00:00:00.398	1.328205	1.315751	1.300366
00:00:00.398	1.326740	1.310623	1.304762
00:00:00.399	1.282784	1.290110	1.295238
00:00:00.399	1.281319	1.288645	1.292308
00:00:00.399	1.275458	1.286447	1.304029
00:00:00.400	1.276923	1.315751	1.315018
00:00:00.400	1.289377	1.305495	1.306960
00:00:00.400	1.301832	1.303297	1.304762
00:00:00.401	1.304762	1.304029	1.309890
00:00:00.401	1.293773	1.304029	1.300366
00:00:00.402	1.311355	1.320879	1.304762
00:00:00.402	1.332601	1.309890	1.302564
00:00:00.402	1.333333	1.290110	1.299634
00:00:00.403	1.344322	1.282784	1.303297
00:00:00.403	1.299634	1.278388	1.298901
00:00:00.403	1.312088	1.284249	1.290110
00:00:00.404	1.308425	1.306227	1.299634
00:00:00.404	1.326740	1.314286	1.303297
00:00:00.404	1.331868	1.306960	1.302564
00:00:00.405	1.316484	1.305495	1.305495
00:00:00.405	1.300366	1.296703	1.293773
00:00:00.405	1.299634	1.308425	1.310623
00:00:00.408	1.287179	1.303297	1.295971
00:00:00.408	1.306227	1.290110	1.298901
00:00:00.408	1.289377	1.293040	1.309158
00:00:00.408	1.291575	1.289377	1.300366
00:00:00.408	1.310623	1.314286	1.310623
00:00:00.408	1.323077	1.340659	1.310623
00:00:00.409	1.325275	1.346520	1.302564
00:00:00.409	1.344322	1.332601	1.300366
00:00:00.410	1.354579	1.309890	1.292308
00:00:00.410	1.352381	1.294505	1.292308
00:00:00.410	1.348718	1.296703	1.303297
00:00:00.410	1.204396	1.289377	1.294505
00:00:00.410	1.208059	1.276190	1.292308
00:00:00.410	1.332601	1.292308	1.308425
00:00:00.411	1.382418	1.298901	1.308425
00:00:00.415	1.417582	1.306960	1.318681
00:00:00.415	1.391941	1.300366	1.319414
00:00:00.415	1.322344	1.276923	1.312821
00:00:00.415	1.204396	1.275458	1.317216
00:00:00.415	1.172894	1.293773	1.312821
00:00:00.415	1.232234	1.319414	1.300366
00:00:00.415	1.310623	1.329670	1.303297
00:00:00.415	1.359707	1.320147	1.294505
00:00:00.415	1.350916	1.311355	1.290110
00:00:00.415	1.361905	1.331868	1.293040
00:00:00.415	1.339194	1.350183	1.300366
00:00:00.415	1.307692	1.332601	1.292308
00:00:00.447	1.279853	1.320147	1.309158
00:00:00.448	1.266667	1.283516	1.298168
00:00:00.448	1.295238	1.284982	1.309158
00:00:00.448	1.303297	1.279121	1.303297
00:00:00.449	1.327473	1.312088	1.309158
00:00:00.449	1.373626	1.295238	1.309158
00:00:00.449	1.334799	1.288645	1.313553
00:00:00.450	1.335531	1.304762	1.320879
00:00:00.450	1.326740	1.306960	1.312088
00:00:00.451	1.345055	1.312088	1.307692
00:00:00.451	1.358242	1.400000	1.307692
00:00:00.451	1.384615	1.426374	1.313553
00:00:00.452	1.336264	1.333333	1.300366
00:00:00.452	1.260806	1.247619	1.290110
00:00:00.452	1.202930	1.221245	1.294505
00:00:00.453	1.251282	1.236630	1.294505
00:00:00.453	1.306227	1.253480	1.293040
00:00:00.453	1.293040	1.241758	1.287179
00:00:00.454	1.289377	1.243223	1.293040
00:00:00.454	1.282051	1.249084	1.265934
00:00:00.454	1.248352	1.300366	1.284982
00:00:00.455	1.260806	1.331136	1.293040
00:00:00.455	1.267399	1.326007	1.297436
00:00:00.456	1.288645	1.320879	1.315018
00:00:00.456	1.240293	1.325275	1.323810
00:00:00.456	1.276923	1.321612	1.347253
00:00:00.457	1.379487	1.323077	1.352381
00:00:00.457	1.441026	1.303297	1.375824
00:00:00.457	1.484982	1.284982	1.323077
00:00:00.458	1.429304	1.306960	1.282051
00:00:00.458	1.314286	1.365568	1.285714
00:00:00.458	1.245421	1.356777	1.281319
00:00:00.459	1.232967	1.333333	1.294505
00:00:00.459	1.298168	1.295238	1.298168
00:00:00.459	1.347253	1.282784	1.296703
00:00:00.460	1.344322	1.298168	1.298168
00:00:00.460	1.287179	1.322344	1.309158
00:00:00.461	1.202198	1.321612	1.319414
00:00:00.461	1.132601	1.296703	1.309158
00:00:00.461	1.249084	1.302564	1.323810
00:00:00.462	1.350916	1.294505	1.309158
00:00:00.462	1.411722	1.279853	1.306960
00:00:00.462	1.397070	1.263736	1.304029
00:00:00.463	1.350183	1.287912	1.291575
00:00:00.463	1.317949	1.309890	1.260073
00:00:00.464	1.328938	1.327473	1.261538
00:00:00.464	1.349451	1.327473	1.265201
00:00:00.464	1.337729	1.319414	1.305495
00:00:00.464	1.339194	1.317216	1.356044
00:00:00.465	1.293773	1.320879	1.351648
00:00:00.497	1.264469	1.325275	1.327473
00:00:00.497	1.286447	1.282784	1.309158
00:00:00.498	1.241758	1.242491	1.292308
00:00:00.498	1.265934	1.284249	1.294505
00:00:00.498	1.307692	1.328938	1.297436
00:00:00.499	1.297436	1.311355	1.300366
00:00:00.499	1.280586	1.379487	1.292308
00:00:00.500	1.336264	1.410256	1.293773
00:00:00.500	1.429304	1.352381	1.307692
00:00:00.500	1.468864	1.298168	1.308425
00:00:00.501	1.400000	1.279121	1.305495
00:00:00.501	1.319414	1.309158	1.312088
00:00:00.501	1.180952	1.296703	1.309158
00:00:00.504	1.159707	1.217582	1.317949
00:00:00.504	1.210989	1.174359	1.323810
00:00:00.504	1.265934	1.181685	1.302564
00:00:00.504	1.290110	1.249084	1.280586
00:00:00.504	1.294505	1.304762	1.276190
00:00:00.504	1.291575	1.325275	1.283516
00:00:00.506	1.327473	1.311355	1.285714
00:00:00.506	1.375824	1.354579	1.305495
00:00:00.506	1.358974	1.363370	1.299634
00:00:00.506	1.330403	1.383883	1.312088
00:00:00.506	1.328205	1.400733	1.319414
00:00:00.506	1.291575	1.329670	1.316484
00:00:00.506	1.279853	1.268864	1.313553
00:00:00.506	1.322344	1.250549	1.317949
00:00:00.510	1.361905	1.233700	1.314286
00:00:00.510	1.380952	1.224176	1.312821
00:00:00.510	1.376557	1.245421	1.305495
00:00:00.510	1.326740	1.304029	1.300366
00:00:00.510	1.217582	1.369963	1.298901
00:00:00.510	1.243956	1.410256	1.279121
00:00:00.510	1.317949	1.386081	1.291575
00:00:00.510	1.380220	1.348718	1.308425
00:00:00.510	1.420513	1.316484	1.309890
00:00:00.510	1.384615	1.293773	1.299634
00:00:00.510	1.366300	1.252015	1.292308
00:00:00.511	1.364103	1.273260	1.305495
00:00:00.511	1.316484	1.317949	1.299634
00:00:00.511	1.257875	1.313553	1.294505
00:00:00.512	1.164835	1.327473	1.332601
00:00:00.512	1.049817	1.305495	1.327473
00:00:00.512	1.052747	1.278388	1.312088
00:00:00.513	1.189011	1.313553	1.296703
00:00:00.513	1.361905	1.242491	1.290842
00:00:00.513	1.416850	1.201465	1.298168
00:00:00.514	1.404396	1.257143	1.299634
00:00:00.514	1.372894	1.322344	1.293773
00:00:00.515	1.356777	1.400000	1.308425
00:00:00.547	1.351648	1.372894	1.300366
00:00:00.547	1.340659	1.342857	1.293040
00:00:00.548	1.355311	1.358242	1.305495
00:00:00.548	1.345788	1.369231	1.303297
00:00:00.548	1.329670	1.356777	1.311355
00:00:00.549	1.320147	1.283516	1.313553
00:00:00.549	1.300366	1.186081	1.308425
00:00:00.549	1.299634	1.197802	1.312088
00:00:00.550	1.298168	1.266667	1.311355
00:00:00.550	1.323077	1.354579	1.315018
00:00:00.550	1.328205	1.374359	1.308425
00:00:00.551	1.316484	1.323810	1.289377
00:00:00.551	1.313553	1.334799	1.305495
00:00:00.551	1.327473	1.304029	1.294505
00:00:00.552	1.339927	1.282051	1.311355
00:00:00.552	1.344322	1.265934	1.304029
00:00:00.552	1.268864	1.248352	1.294505
00:00:00.553	1.273260	1.301832	1.298168
00:00:00.553	1.306227	1.313553	1.294505
00:00:00.554	1.336996	1.306960	1.293040
00:00:00.554	1.400000	1.303297	1.300366
00:00:00.554	1.353846	1.305495	1.299634
00:00:00.555	1.274725	1.298901	1.297436
00:00:00.555	1.199267	1.320147	1.298168
00:00:00.555	1.189011	1.311355	1.304029
00:00:00.556	1.239560	1.279121	1.308425
00:00:00.556	1.282784	1.287179	1.305495
00:00:00.556	1.300366	1.318681	1.302564
00:00:00.557	1.330403	1.339927	1.312821
00:00:00.557	1.354579	1.326007	1.308425
00:00:00.557	1.334066	1.265934	1.294505
00:00:00.558	1.293773	1.276923	1.298901
00:00:00.558	1.293040	1.294505	1.295971
00:00:00.559	1.394139	1.318681	1.322344
00:00:00.559	1.347253	1.323810	1.309158
00:00:00.559	1.312088	1.304029	1.302564
00:00:00.560	1.295971	1.293773	1.298168
00:00:00.560	1.304029	1.303297	1.309158
00:00:00.560	1.269597	1.316484	1.317216
00:00:00.561	1.271795	1.301832	1.300366
00:00:00.561	1.279853	1.290110	1.304029
00:00:00.561	1.347253	1.315018	1.315751
00:00:00.562	1.378022	1.323077	1.312821
00:00:00.562	1.398535	1.316484	1.293040
00:00:00.562	1.351648	1.306960	1.284249
00:00:00.563	1.296703	1.344322	1.284982
00:00:00.563	1.271062	1.356777	1.304762
00:00:00.564	1.278388	1.344322	1.307692
00:00:00.564	1.303297	1.295238	1.312821
00:00:00.564	1.312821	1.276190	1.309158
00:00:00.596	1.309158	1.283516	1.312821
00:00:00.597	1.318681	1.290842	1.303297
00:00:00.597	1.319414	1.286447	1.298901
00:00:00.599	1.286447	1.282784	1.300366
00:00:00.600	1.268132	1.282784	1.308425
00:00:00.600	1.263736	1.323810	1.312821
00:00:00.600	1.284249	1.351648	1.304762
00:00:00.600	1.287912	1.333333	1.315018
00:00:00.600	1.288645	1.303297	1.309890
00:00:00.600	1.294505	1.273993	1.315751
00:00:00.600	1.318681	1.273993	1.308425
00:00:00.600	1.323810	1.306960	1.274725
00:00:00.602	1.328205	1.318681	1.281319
00:00:00.602	1.333333	1.304762	1.279121
00:00:00.602	1.308425	1.309158	1.282784
00:00:00.602	1.323077	1.326740	1.339927
00:00:00.602	1.322344	1.306227	1.311355
00:00:00.603	1.326740	1.286447	1.276190
00:00:00.603	1.335531	1.268864	1.280586
00:00:00.603	1.330403	1.263736	1.297436
00:00:00.607	1.315018	1.271062	1.309890
00:00:00.607	1.297436	1.286447	1.317949
00:00:00.607	1.291575	1.298168	1.312088
00:00:00.607	1.295238	1.342125	1.315018
00:00:00.607	1.296703	1.328205	1.313553
00:00:00.607	1.297436	1.301099	1.311355
00:00:00.607	1.300366	1.306227	1.312088
00:00:00.607	1.307692	1.306960	1.310623
00:00:00.607	1.313553	1.320879	1.309158
00:00:00.607	1.317216	1.330403	1.303297
00:00:00.607	1.314286	1.309158	1.297436
00:00:00.608	1.320147	1.316484	1.293773
00:00:00.608	1.319414	1.324542	1.298168
00:00:00.608	1.317216	1.345788	1.305495
00:00:00.609	1.321612	1.397070	1.308425
00:00:00.609	1.306227	1.351648	1.296703
00:00:00.609	1.314286	1.328938	1.300366
00:00:00.610	1.305495	1.315751	1.304029
00:00:00.610	1.294505	1.298168	1.291575
00:00:00.610	1.305495	1.282784	1.309890
00:00:00.611	1.301832	1.218315	1.302564
00:00:00.611	1.303297	1.194872	1.304029
00:00:00.611	1.304762	1.200733	1.300366
00:00:00.612	1.306227	1.197802	1.288645
00:00:00.612	1.315018	1.227839	1.300366
00:00:00.613	1.325275	1.247619	1.309890
00:00:00.613	1.312821	1.257143	1.303297
00:00:00.613	1.320879	1.306960	1.310623
00:00:00.614	1.309158	1.329670	1.299634
00:00:00.614	1.312088	1.355311	1.300366
00:00:00.646	1.329670	1.372161	1.306960
00:00:00.647	1.309158	1.369963	1.295238
00:00:00.647	1.290842	1.352381	1.298168
00:00:00.647	1.297436	1.356044	1.312821
00:00:00.648	1.298168	1.337729	1.309890
00:00:00.648	1.252015	1.315018	1.305495
00:00:00.648	1.253480	1.313553	1.309158
00:00:00.649	1.273260	1.302564	1.310623
00:00:00.649	1.304762	1.306960	1.306960
00:00:00.649	1.353114	1.313553	1.312088
00:00:00.650	1.350916	1.305495	1.306960
00:00:00.650	1.355311	1.297436	1.312088
00:00:00.650	1.340659	1.301099	1.309158
00:00:00.651	1.307692	1.305495	1.303297
00:00:00.651	1.303297	1.304762	1.305495
00:00:00.652	1.358974	1.300366	1.295238
00:00:00.652	1.306227	1.339927	1.302564
00:00:00.652	1.298901	1.355311	1.304029
00:00:00.653	1.364103	1.356777	1.310623
00:00:00.653	1.417582	1.358242	1.304029
00:00:00.653	1.394139	1.412454	1.304029
00:00:00.654	1.238828	1.293773	1.290842
00:00:00.654	1.169963	1.247619	1.300366
00:00:00.654	1.202198	1.216850	1.295238
00:00:00.655	1.262271	1.208059	1.290110
00:00:00.655	1.355311	1.238095	1.297436
00:00:00.655	1.388278	1.273260	1.313553
00:00:00.656	1.329670	1.296703	1.306960
00:00:00.656	1.271062	1.347253	1.304762
00:00:00.657	1.256410	1.366300	1.302564
00:00:00.657	1.268864	1.337729	1.294505
00:00:00.657	1.296703	1.279853	1.295971
00:00:00.658	1.316484	1.243223	1.296703
00:00:00.658	1.310623	1.219048	1.290110
00:00:00.658	1.309158	1.225641	1.284249
00:00:00.659	1.317949	1.273993	1.299634
00:00:00.659	1.317949	1.325275	1.300366
00:00:00.659	1.324542	1.350916	1.306960
00:00:00.660	1.326007	1.339194	1.312088
00:00:00.660	1.323810	1.326007	1.314286
00:00:00.660	1.310623	1.306960	1.304029
00:00:00.661	1.312088	1.323810	1.322344
00:00:00.661	1.313553	1.313553	1.310623
00:00:00.663	1.312821	1.294505	1.295238
00:00:00.663	1.318681	1.309890	1.300366
00:00:00.663	1.312088	1.318681	1.306960
00:00:00.663	1.310623	1.311355	1.310623
00:00:00.663	1.310623	1.315751	1.302564
00:00:00.663	1.312088	1.298168	1.295238
00:00:00.664	1.327473	1.292308	1.295971
00:00:00.698	1.346520	1.318681	1.307692
00:00:00.698	1.320147	1.331868	1.305495
00:00:00.698	1.268864	1.310623	1.291575
00:00:00.698	1.287912	1.315751	1.299634
00:00:00.698	1.270330	1.322344	1.293773
00:00:00.698	1.265201	1.382418	1.310623
00:00:00.698	1.275458	1.386813	1.304762
00:00:00.698	1.305495	1.345788	1.311355
00:00:00.702	1.338462	1.279121	1.309890
00:00:00.702	1.354579	1.260073	1.313553
00:00:00.702	1.336264	1.274725	1.315018
00:00:00.702	1.309158	1.225641	1.304029
00:00:00.702	1.314286	1.173626	1.299634
00:00:00.702	1.320879	1.195604	1.296703
00:00:00.702	1.312088	1.248352	1.304029
00:00:00.702	1.307692	1.257143	1.298901
00:00:00.702	1.312088	1.285714	1.296703
00:00:00.702	1.315018	1.319414	1.298901
00:00:00.702	1.313553	1.347253	1.312821
00:00:00.703	1.315018	1.377289	1.304029
00:00:00.703	1.306227	1.409524	1.305495
00:00:00.703	1.303297	1.361905	1.300366
00:00:00.705	1.315018	1.346520	1.310623
00:00:00.705	1.313553	1.319414	1.308425
00:00:00.705	1.294505	1.301832	1.304029
00:00:00.705	1.293773	1.298168	1.317216
00:00:00.705	1.333333	1.276923	1.308425
00:00:00.706	1.310623	1.259341	1.295971
00:00:00.706	1.326007	1.285714	1.301832
00:00:00.706	1.368498	1.338462	1.309158
00:00:00.707	1.336264	1.313553	1.293040
00:00:00.707	1.309890	1.263004	1.291575
00:00:00.707	1.257143	1.277656	1.294505
00:00:00.708	1.270330	1.280586	1.287179
00:00:00.708	1.282051	1.300366	1.293773
00:00:00.708	1.257875	1.301099	1.294505
00:00:00.709	1.247619	1.315018	1.293773
00:00:00.709	1.267399	1.347253	1.302564
00:00:00.709	1.298901	1.358974	1.304762
00:00:00.710	1.311355	1.342857	1.297436
00:00:00.710	1.334066	1.334799	1.323810
00:00:00.711	1.320147	1.326007	1.320147
00:00:00.711	1.312088	1.310623	1.306227
00:00:00.711	1.341392	1.283516	1.312088
00:00:00.712	1.317216	1.266667	1.303297
00:00:00.712	1.306227	1.266667	1.312821
00:00:00.712	1.298168	1.279853	1.309158
00:00:00.713	1.312088	1.293773	1.307692
00:00:00.713	1.314286	1.328205	1.297436
00:00:00.713	1.329670	1.335531	1.298901
00:00:00.746	1.336264	1.344322	1.304029
00:00:00.746	1.329670	1.312821	1.301832
00:00:00.746	1.317949	1.298168	1.306227
00:00:00.747	1.301099	1.287912	1.304029
00:00:00.747	1.293773	1.278388	1.306960
00:00:00.747	1.303297	1.254945	1.312821
00:00:00.748	1.328205	1.279853	1.311355
00:00:00.748	1.323810	1.309890	1.305495
00:00:00.748	1.323810	1.328205	1.310623
00:00:00.749	1.315018	1.328938	1.305495
00:00:00.749	1.306960	1.326007	1.308425
00:00:00.749	1.306227	1.312088	1.296703
00:00:00.750	1.310623	1.295971	1.299634
00:00:00.750	1.308425	1.304029	1.299634
00:00:00.751	1.300366	1.308425	1.299634
00:00:00.751	1.309890	1.293773	1.298901
00:00:00.751	1.287179	1.290110	1.299634
00:00:00.752	1.268864	1.306227	1.304029
00:00:00.752	1.283516	1.304762	1.298901
00:00:00.752	1.240293	1.300366	1.295238
00:00:00.753	1.268132	1.323810	1.304029
00:00:00.753	1.354579	1.328938	1.310623
00:00:00.753	1.422711	1.326740	1.309158
00:00:00.754	1.436630	1.320879	1.312088
00:00:00.754	1.376557	1.317216	1.300366
00:00:00.754	1.317949	1.354579	1.310623
00:00:00.755	1.235897	1.342125	1.304762
00:00:00.756	1.180220	1.292308	1.299634
00:00:00.756	1.235897	1.257143	1.314286
00:00:00.757	1.316484	1.263004	1.307692
00:00:00.757	1.370696	1.284249	1.305495
00:00:00.757	1.357509	1.262271	1.300366
00:00:00.757	1.319414	1.224176	1.280586
00:00:00.757	1.336996	1.247619	1.290110
00:00:00.758	1.337729	1.279853	1.295238
00:00:00.758	1.313553	1.309158	1.290842
00:00:00.758	1.298901	1.339927	1.299634
00:00:00.759	1.254945	1.333333	1.295971
00:00:00.759	1.260806	1.333333	1.305495
00:00:00.760	1.250549	1.336264	1.315751
00:00:00.760	1.247619	1.315751	1.304762
00:00:00.760	1.290110	1.360440	1.332601
00:00:00.762	1.342125	1.341392	1.317949
00:00:00.762	1.363370	1.334799	1.315018
00:00:00.762	1.373626	1.320147	1.309890
00:00:00.762	1.342125	1.283516	1.312821
00:00:00.762	1.298901	1.268864	1.309158
00:00:00.762	1.271062	1.251282	1.298901
00:00:00.764	1.311355	1.272527	1.287179
00:00:00.764	1.339927	1.277656	1.287912
00:00:00.798	1.353114	1.279121	1.287912
00:00:00.798	1.306960	1.279121	1.290842
00:00:00.798	1.284249	1.299634	1.298901
00:00:00.798	1.300366	1.317949	1.308425
00:00:00.798	1.301099	1.350183	1.319414
00:00:00.798	1.292308	1.367033	1.315751
00:00:00.798	1.275458	1.342125	1.304762
00:00:00.798	1.287912	1.347253	1.315751
00:00:00.798	1.280586	1.302564	1.315751
00:00:00.798	1.258608	1.263004	1.309158
00:00:00.799	1.304029	1.254212	1.315018
00:00:00.799	1.318681	1.254945	1.315018
00:00:00.800	1.312821	1.274725	1.309158
00:00:00.800	1.337729	1.353114	1.306960
00:00:00.800	1.356777	1.341392	1.302564
00:00:00.801	1.361905	1.312088	1.298901
00:00:00.801	1.335531	1.257875	1.300366
00:00:00.801	1.323810	1.284982	1.292308
00:00:00.802	1.321612	1.305495	1.287912
00:00:00.802	1.339927	1.315018	1.301832
00:00:00.802	1.319414	1.308425	1.296703
00:00:00.803	1.308425	1.338462	1.305495
00:00:00.803	1.302564	1.353846	1.306227
00:00:00.803	1.292308	1.334799	1.308425
00:00:00.804	1.291575	1.311355	1.312821
00:00:00.804	1.294505	1.294505	1.309890
00:00:00.805	1.292308	1.279853	1.298901
00:00:00.805	1.315751	1.304762	1.315018
00:00:00.805	1.332601	1.302564	1.315018
00:00:00.806	1.323810	1.264469	1.298901
00:00:00.806	1.323810	1.280586	1.305495
00:00:00.806	1.282051	1.296703	1.308425
00:00:00.807	1.268132	1.295971	1.298901
00:00:00.807	1.285714	1.312088	1.303297
00:00:00.807	1.309890	1.320147	1.300366
00:00:00.808	1.332601	1.335531	1.297436
00:00:00.809	1.358974	1.331868	1.300366
00:00:00.809	1.344322	1.328938	1.295971
00:00:00.809	1.298168	1.308425	1.294505
00:00:00.809	1.267399	1.312821	1.305495
00:00:00.810	1.276190	1.323077	1.306227
00:00:00.810	1.303297	1.326740	1.310623
00:00:00.810	1.297436	1.321612	1.312088
00:00:00.811	1.255678	1.334799	1.316484
00:00:00.811	1.295238	1.378755	1.314286
00:00:00.811	1.317949	1.400733	1.312821
00:00:00.812	1.358242	1.380220	1.315018
00:00:00.812	1.369231	1.279121	1.313553
00:00:00.812	1.358242	1.217582	1.288645
00:00:00.813	1.339927	1.226374	1.299634
00:00:00.845	1.308425	1.188278	1.285714
00:00:00.845	1.208059	1.152381	1.285714
00:00:00.846	1.230037	1.142125	1.282784
00:00:00.846	1.328205	1.233700	1.300366
00:00:00.846	1.398535	1.323810	1.311355
00:00:00.847	1.423443	1.339927	1.298168
00:00:00.847	1.357509	1.398535	1.316484
00:00:00.847	1.287179	1.407326	1.322344
00:00:00.848	1.227839	1.351648	1.319414
00:00:00.848	1.240293	1.309158	1.321612
00:00:00.849	1.282784	1.295238	1.309158
00:00:00.849	1.295238	1.290842	1.295971
00:00:00.849	1.284249	1.304029	1.304762
00:00:00.850	1.306227	1.303297	1.300366
00:00:00.850	1.347253	1.295238	1.294505
00:00:00.850	1.343590	1.332601	1.298901
00:00:00.851	1.383150	1.349451	1.295971
00:00:00.851	1.357509	1.332601	1.295238
00:00:00.851	1.341392	1.321612	1.290842
00:00:00.852	1.322344	1.328205	1.303297
00:00:00.852	1.298168	1.309890	1.298168
00:00:00.852	1.277656	1.304762	1.293773
00:00:00.853	1.275458	1.304029	1.311355
00:00:00.853	1.273993	1.295971	1.309890
00:00:00.855	1.257143	1.290110	1.306960
00:00:00.855	1.265934	1.303297	1.303297
00:00:00.855	1.274725	1.322344	1.304762
00:00:00.856	1.268864	1.301832	1.304029
00:00:00.856	1.298901	1.290110	1.308425
00:00:00.856	1.319414	1.274725	1.309158
00:00:00.858	1.328205	1.261538	1.296703
00:00:00.858	1.345055	1.276923	1.309158
00:00:00.858	1.348718	1.305495	1.300366
00:00:00.858	1.344322	1.354579	1.302564
00:00:00.858	1.335531	1.346520	1.297436
00:00:00.858	1.321612	1.310623	1.297436
00:00:00.858	1.300366	1.287912	1.299634
00:00:00.858	1.276923	1.318681	1.309158
00:00:00.859	1.268132	1.298901	1.304029
00:00:00.863	1.282784	1.276923	1.306960
00:00:00.863	1.319414	1.263736	1.308425
00:00:00.863	1.344322	1.282051	1.309158
00:00:00.863	1.376557	1.318681	1.312821
00:00:00.863	1.383883	1.380220	1.309158
00:00:00.863	1.357509	1.392674	1.318681
00:00:00.863	1.320879	1.355311	1.315751
00:00:00.863	1.322344	1.322344	1.312821
00:00:00.863	1.329670	1.301099	1.308425
00:00:00.863	1.319414	1.302564	1.304029
00:00:00.863	1.255678	1.268864	1.292308
00:00:00.895	1.219780	1.259341	1.294505
00:00:00.895	1.227839	1.252015	1.297436
00:00:00.895	1.276923	1.275458	1.300366
00:00:00.896	1.308425	1.283516	1.300366
00:00:00.896	1.355311	1.284249	1.312088
00:00:00.896	1.375824	1.289377	1.307692
00:00:00.897	1.313553	1.290110	1.319414
00:00:00.897	1.241026	1.278388	1.293773
00:00:00.898	1.289377	1.313553	1.304029
00:00:00.898	1.303297	1.364103	1.309890
00:00:00.898	1.324542	1.350916	1.317949
00:00:00.899	1.307692	1.317949	1.317216
00:00:00.899	1.287912	1.266667	1.305495
00:00:00.899	1.298168	1.271795	1.311355
00:00:00.900	1.317216	1.307692	1.306227
00:00:00.900	1.311355	1.301832	1.300366
00:00:00.900	1.314286	1.320147	1.298168
00:00:00.901	1.342125	1.349451	1.295238
00:00:00.901	1.348718	1.342857	1.286447
00:00:00.901	1.345788	1.347985	1.300366
00:00:00.902	1.322344	1.293773	1.298168
00:00:00.902	1.344322	1.265201	1.307692
00:00:00.903	1.312088	1.245421	1.305495
00:00:00.903	1.320879	1.273993	1.315751
00:00:00.903	1.293040	1.276190	1.311355
00:00:00.904	1.213187	1.286447	1.312821
00:00:00.904	1.211722	1.281319	1.299634
00:00:00.904	1.270330	1.317949	1.312821
00:00:00.905	1.317949	1.336996	1.306227
00:00:00.905	1.386081	1.339927	1.306227
00:00:00.905	1.391941	1.295238	1.296703
00:00:00.906	1.320879	1.274725	1.289377
00:00:00.906	1.267399	1.292308	1.295238
00:00:00.906	1.290842	1.292308	1.283516
00:00:00.907	1.312088	1.285714	1.293040
00:00:00.907	1.311355	1.310623	1.309158
00:00:00.908	1.295971	1.337729	1.298168
00:00:00.908	1.291575	1.331136	1.304762
00:00:00.908	1.309890	1.326740	1.302564
00:00:00.909	1.317216	1.319414	1.315018
00:00:00.909	1.312088	1.308425	1.309890
00:00:00.909	1.308425	1.300366	1.308425
00:00:00.910	1.306960	1.305495	1.312821
00:00:00.910	1.327473	1.339194	1.314286
00:00:00.910	1.329670	1.356044	1.312821
00:00:00.911	1.328205	1.333333	1.297436
00:00:00.911	1.328205	1.334066	1.309890
00:00:00.911	1.317949	1.304762	1.309158
00:00:00.912	1.329670	1.259341	1.305495
00:00:00.912	1.319414	1.252747	1.301832
00:00:00.945	1.295238	1.252747	1.297436
00:00:00.945	1.268864	1.256410	1.294505
00:00:00.945	1.273993	1.313553	1.295971
00:00:00.945	1.287912	1.302564	1.299634
00:00:00.946	1.310623	1.287179	1.298901
00:00:00.946	1.342857	1.315018	1.302564
00:00:00.947	1.360440	1.329670	1.305495
00:00:00.947	1.356777	1.317216	1.299634
00:00:00.947	1.323810	1.295238	1.304029
00:00:00.948	1.291575	1.289377	1.300366
00:00:00.948	1.222711	1.295971	1.306960
00:00:00.948	1.250549	1.318681	1.311355
00:00:00.949	1.270330	1.333333	1.305495
00:00:00.949	1.329670	1.342857	1.310623
00:00:00.949	1.375092	1.317949	1.305495
00:00:00.950	1.366300	1.320879	1.304762
00:00:00.950	1.345788	1.305495	1.306227
00:00:00.950	1.309158	1.358974	1.303297
00:00:00.952	1.288645	1.378755	1.300366
00:00:00.952	1.288645	1.396337	1.300366
00:00:00.953	1.252015	1.322344	1.295238
00:00:00.953	1.244689	1.242491	1.294505
00:00:00.953	1.288645	1.230769	1.318681
00:00:00.954	1.345788	1.230037	1.314286
00:00:00.954	1.366300	1.205128	1.304029
00:00:00.954	1.354579	1.167766	1.304029
00:00:00.954	1.338462	1.208791	1.295238
00:00:00.954	1.323810	1.301832	1.305495
00:00:00.954	1.290842	1.347253	1.312088
00:00:00.955	1.263004	1.347253	1.304762
00:00:00.955	1.246154	1.350916	1.302564
00:00:00.955	1.286447	1.344322	1.302564
00:00:00.956	1.316484	1.326007	1.310623
00:00:00.960	1.336996	1.330403	1.310623
00:00:00.960	1.345788	1.326740	1.307692
00:00:00.960	1.376557	1.312088	1.300366
00:00:00.960	1.338462	1.297436	1.291575
00:00:00.960	1.314286	1.316484	1.309158
00:00:00.960	1.274725	1.323810	1.310623
00:00:00.960	1.266667	1.310623	1.306227
00:00:00.960	1.265201	1.292308	1.296703
00:00:00.960	1.288645	1.304762	1.316484
00:00:00.960	1.276923	1.326740	1.308425
00:00:00.960	1.302564	1.345788	1.320147
00:00:00.960	1.328938	1.348718	1.320147
00:00:00.960	1.312821	1.308425	1.312088
00:00:00.961	1.324542	1.301832	1.302564
00:00:00.961	1.307692	1.278388	1.300366
00:00:00.962	1.296703	1.283516	1.300366
00:00:00.962	1.308425	1.297436	1.303297
