timestamp	ch1	ch2	ch3
00:00:00.000	1.320147	1.325275	1.316484
00:00:00.000	1.316484	1.315751	1.315751
00:00:00.000	1.317216	1.306960	1.313553
00:00:00.001	1.309158	1.287912	1.302564
00:00:00.001	1.313553	1.302564	1.309158
00:00:00.001	1.309158	1.298168	1.298168
00:00:00.002	1.304029	1.294505	1.302564
00:00:00.002	1.309890	1.284249	1.298168
00:00:00.003	1.308425	1.286447	1.291575
00:00:00.003	1.306960	1.274725	1.282784
00:00:00.003	1.307692	1.278388	1.273260
00:00:00.004	1.306960	1.299634	1.300366
00:00:00.004	1.287179	1.306960	1.295238
00:00:00.004	1.301099	1.309158	1.293773
00:00:00.005	1.302564	1.327473	1.315018
00:00:00.005	1.297436	1.334799	1.300366
00:00:00.005	1.298901	1.339927	1.321612
00:00:00.006	1.299634	1.304029	1.312821
00:00:00.006	1.295971	1.285714	1.309158
00:00:00.006	1.296703	1.271062	1.299634
00:00:00.007	1.315751	1.289377	1.307692
00:00:00.007	1.323810	1.298901	1.312821
00:00:00.008	1.314286	1.323077	1.302564
00:00:00.008	1.313553	1.329670	1.299634
00:00:00.008	1.303297	1.339194	1.290842
00:00:00.011	1.310623	1.339927	1.287912
00:00:00.011	1.306960	1.318681	1.295238
00:00:00.011	1.310623	1.289377	1.294505
00:00:00.011	1.298901	1.274725	1.295971
00:00:00.011	1.310623	1.274725	1.304762
00:00:00.011	1.307692	1.265934	1.295238
00:00:00.011	1.313553	1.263736	1.302564
00:00:00.011	1.323077	1.250549	1.320147
00:00:00.012	1.312088	1.254212	1.308425
00:00:00.012	1.321612	1.298901	1.312821
00:00:00.012	1.309158	1.309158	1.294505
00:00:00.015	1.320147	1.333333	1.311355
00:00:00.015	1.322344	1.309890	1.305495
00:00:00.015	1.287179	1.279121	1.304029
00:00:00.015	1.259341	1.288645	1.295238
00:00:00.015	1.256410	1.301832	1.285714
00:00:00.015	1.300366	1.334799	1.292308
00:00:00.015	1.333333	1.353846	1.302564
00:00:00.015	1.353114	1.358974	1.300366
00:00:00.015	1.346520	1.379487	1.301832
00:00:00.016	1.339194	1.394139	1.304029
00:00:00.017	1.309890	1.347253	1.292308
00:00:00.017	1.317949	1.323077	1.312088
00:00:00.017	1.300366	1.292308	1.309890
00:00:00.017	1.282051	1.252015	1.312821
00:00:00.049	1.313553	1.242491	1.318681
00:00:00.050	1.325275	1.216850	1.313553
00:00:00.050	1.316484	1.212454	1.312821
00:00:00.050	1.299634	1.238828	1.305495
00:00:00.051	1.310623	1.297436	1.312821
00:00:00.051	1.299634	1.308425	1.304029
00:00:00.052	1.294505	1.318681	1.298168
00:00:00.052	1.295238	1.317949	1.294505
00:00:00.052	1.295238	1.325275	1.292308
00:00:00.053	1.295238	1.312088	1.291575
00:00:00.053	1.285714	1.317216	1.297436
00:00:00.053	1.299634	1.314286	1.292308
00:00:00.054	1.294505	1.303297	1.290110
00:00:00.054	1.304762	1.309158	1.304029
00:00:00.054	1.314286	1.308425	1.295971
00:00:00.055	1.327473	1.317949	1.315018
00:00:00.055	1.321612	1.309890	1.316484
00:00:00.055	1.317949	1.304029	1.315018
00:00:00.056	1.309890	1.307692	1.309158
00:00:00.056	1.316484	1.310623	1.315751
00:00:00.057	1.311355	1.303297	1.305495
00:00:00.057	1.308425	1.307692	1.302564
00:00:00.057	1.302564	1.299634	1.299634
00:00:00.058	1.302564	1.304762	1.299634
00:00:00.058	1.306227	1.313553	1.300366
00:00:00.058	1.306227	1.314286	1.300366
00:00:00.059	1.306960	1.313553	1.289377
00:00:00.059	1.308425	1.317949	1.299634
00:00:00.059	1.301099	1.299634	1.295238
00:00:00.060	1.309158	1.301099	1.297436
00:00:00.060	1.320147	1.309890	1.313553
00:00:00.061	1.309890	1.288645	1.300366
00:00:00.061	1.322344	1.288645	1.315018
00:00:00.062	1.331136	1.298168	1.312088
00:00:00.062	1.324542	1.293773	1.309158
00:00:00.062	1.323077	1.297436	1.318681
00:00:00.062	1.312088	1.289377	1.305495
00:00:00.063	1.294505	1.283516	1.304762
00:00:00.063	1.309158	1.299634	1.304029
00:00:00.063	1.306227	1.312821	1.300366
00:00:00.064	1.304029	1.317216	1.301832
00:00:00.064	1.300366	1.299634	1.284249
00:00:00.064	1.297436	1.296703	1.280586
00:00:00.065	1.301832	1.311355	1.303297
00:00:00.065	1.290110	1.317216	1.295238
00:00:00.066	1.281319	1.320147	1.290110
00:00:00.066	1.292308	1.317949	1.299634
00:00:00.066	1.291575	1.308425	1.306960
00:00:00.067	1.293040	1.301832	1.302564
00:00:00.067	1.320879	1.314286	1.312821
00:00:00.099	1.320147	1.292308	1.304762
00:00:00.099	1.331136	1.304762	1.315018
00:00:00.100	1.322344	1.301099	1.305495
00:00:00.100	1.312821	1.299634	1.301832
00:00:00.101	1.320879	1.300366	1.306960
00:00:00.101	1.309890	1.305495	1.309890
00:00:00.101	1.298168	1.304029	1.300366
00:00:00.102	1.303297	1.306227	1.302564
00:00:00.102	1.298168	1.297436	1.284982
00:00:00.102	1.311355	1.311355	1.305495
00:00:00.104	1.307692	1.295971	1.298168
00:00:00.104	1.305495	1.285714	1.297436
00:00:00.104	1.319414	1.292308	1.298901
00:00:00.106	1.323810	1.290842	1.298901
00:00:00.106	1.319414	1.282051	1.295238
00:00:00.106	1.327473	1.299634	1.310623
00:00:00.106	1.317949	1.301099	1.312088
00:00:00.106	1.306960	1.295971	1.312821
00:00:00.106	1.303297	1.298168	1.315751
00:00:00.106	1.307692	1.306960	1.308425
00:00:00.106	1.293773	1.304762	1.306227
00:00:00.110	1.305495	1.302564	1.307692
00:00:00.110	1.308425	1.300366	1.293040
00:00:00.110	1.303297	1.314286	1.300366
00:00:00.110	1.305495	1.315751	1.299634
00:00:00.110	1.290110	1.318681	1.290110
00:00:00.110	1.306960	1.323077	1.292308
00:00:00.110	1.305495	1.318681	1.290842
00:00:00.110	1.307692	1.312821	1.300366
00:00:00.111	1.312821	1.309890	1.308425
00:00:00.111	1.315751	1.313553	1.308425
00:00:00.111	1.312821	1.305495	1.307692
00:00:00.111	1.322344	1.304029	1.312088
00:00:00.111	1.317216	1.339194	1.315751
00:00:00.111	1.317949	1.336996	1.320147
00:00:00.112	1.315751	1.301099	1.310623
00:00:00.112	1.315018	1.293773	1.314286
00:00:00.112	1.314286	1.301832	1.306960
00:00:00.113	1.310623	1.312088	1.302564
00:00:00.113	1.310623	1.306227	1.301832
00:00:00.114	1.309158	1.292308	1.300366
00:00:00.114	1.300366	1.249084	1.287912
00:00:00.114	1.296703	1.254212	1.292308
00:00:00.115	1.302564	1.295238	1.297436
00:00:00.115	1.303297	1.331136	1.294505
00:00:00.115	1.306227	1.328938	1.295971
00:00:00.116	1.327473	1.319414	1.295971
00:00:00.116	1.337729	1.319414	1.304029
00:00:00.116	1.331136	1.321612	1.310623
00:00:00.117	1.311355	1.302564	1.306227
00:00:00.149	1.309890	1.294505	1.320879
00:00:00.149	1.304762	1.295238	1.313553
00:00:00.150	1.311355	1.287179	1.310623
00:00:00.150	1.309158	1.285714	1.308425
00:00:00.150	1.314286	1.285714	1.309158
00:00:00.151	1.303297	1.294505	1.310623
00:00:00.151	1.298168	1.312821	1.304762
00:00:00.151	1.290110	1.326007	1.309158
00:00:00.152	1.257875	1.327473	1.295238
00:00:00.152	1.268864	1.330403	1.288645
00:00:00.152	1.289377	1.323810	1.281319
00:00:00.153	1.306227	1.320147	1.276190
00:00:00.153	1.345788	1.331868	1.297436
00:00:00.154	1.364835	1.324542	1.300366
00:00:00.154	1.344322	1.302564	1.298901
00:00:00.154	1.339194	1.328938	1.309890
00:00:00.155	1.311355	1.321612	1.313553
00:00:00.155	1.278388	1.305495	1.318681
00:00:00.155	1.284982	1.281319	1.344322
00:00:00.156	1.298168	1.260073	1.350916
00:00:00.156	1.309890	1.276923	1.328938
00:00:00.156	1.297436	1.272527	1.300366
00:00:00.157	1.304029	1.280586	1.298168
00:00:00.157	1.302564	1.301832	1.295971
00:00:00.157	1.297436	1.306227	1.293773
00:00:00.158	1.304762	1.315018	1.292308
00:00:00.158	1.301832	1.316484	1.289377
00:00:00.159	1.313553	1.328205	1.300366
00:00:00.159	1.314286	1.331868	1.303297
00:00:00.159	1.317216	1.323077	1.301832
00:00:00.160	1.328205	1.320879	1.306960
00:00:00.160	1.323810	1.303297	1.298168
00:00:00.160	1.319414	1.296703	1.311355
00:00:00.161	1.320879	1.278388	1.295238
00:00:00.161	1.305495	1.278388	1.304029
00:00:00.161	1.319414	1.283516	1.312821
00:00:00.162	1.316484	1.290110	1.310623
00:00:00.162	1.313553	1.294505	1.312821
00:00:00.162	1.305495	1.304762	1.305495
00:00:00.163	1.303297	1.306227	1.297436
00:00:00.163	1.311355	1.326007	1.304762
00:00:00.164	1.301099	1.320147	1.304762
00:00:00.164	1.292308	1.315751	1.297436
00:00:00.164	1.300366	1.315751	1.298168
00:00:00.165	1.293040	1.297436	1.284982
00:00:00.165	1.309158	1.309890	1.293040
00:00:00.165	1.313553	1.311355	1.296703
00:00:00.166	1.303297	1.301832	1.294505
00:00:00.166	1.325275	1.311355	1.312821
00:00:00.166	1.317949	1.298901	1.310623
00:00:00.199	1.323077	1.301099	1.317949
00:00:00.199	1.315018	1.295971	1.310623
00:00:00.199	1.315018	1.300366	1.315018
00:00:00.200	1.298901	1.282051	1.305495
00:00:00.200	1.312088	1.291575	1.308425
00:00:00.200	1.309158	1.289377	1.309158
00:00:00.202	1.317216	1.296703	1.304762
00:00:00.202	1.307692	1.307692	1.300366
00:00:00.202	1.296703	1.298901	1.296703
00:00:00.202	1.303297	1.320879	1.295971
00:00:00.202	1.294505	1.311355	1.284982
00:00:00.204	1.308425	1.323810	1.300366
00:00:00.204	1.328205	1.322344	1.298901
00:00:00.204	1.344322	1.326740	1.311355
00:00:00.204	1.320147	1.315018	1.304029
00:00:00.204	1.314286	1.312088	1.315751
00:00:00.204	1.295971	1.308425	1.312088
00:00:00.205	1.288645	1.298168	1.309158
00:00:00.208	1.296703	1.293040	1.304029
00:00:00.208	1.307692	1.298901	1.312821
00:00:00.208	1.299634	1.292308	1.306960
00:00:00.208	1.288645	1.297436	1.313553
00:00:00.208	1.299634	1.295238	1.302564
00:00:00.208	1.306227	1.304029	1.306960
00:00:00.208	1.296703	1.302564	1.295238
00:00:00.208	1.304762	1.310623	1.297436
00:00:00.208	1.305495	1.313553	1.295238
00:00:00.208	1.287179	1.299634	1.296703
00:00:00.209	1.315018	1.314286	1.300366
00:00:00.209	1.322344	1.306960	1.290110
00:00:00.209	1.327473	1.320147	1.304029
00:00:00.210	1.336264	1.328205	1.308425
00:00:00.210	1.329670	1.326007	1.313553
00:00:00.210	1.316484	1.306960	1.309890
00:00:00.211	1.315751	1.287912	1.304029
00:00:00.211	1.309890	1.294505	1.310623
00:00:00.211	1.293773	1.296703	1.306227
00:00:00.212	1.298901	1.295238	1.307692
00:00:00.212	1.345788	1.304029	1.309158
00:00:00.213	1.358242	1.296703	1.300366
00:00:00.213	1.354579	1.309890	1.311355
00:00:00.213	1.315751	1.321612	1.307692
00:00:00.214	1.282051	1.305495	1.290110
00:00:00.214	1.268132	1.306227	1.290842
00:00:00.214	1.252747	1.312821	1.287179
00:00:00.215	1.251282	1.307692	1.291575
00:00:00.215	1.291575	1.295238	1.295238
00:00:00.215	1.313553	1.274725	1.287912
00:00:00.216	1.328205	1.271795	1.297436
00:00:00.216	1.318681	1.278388	1.306227
00:00:00.248	1.312821	1.294505	1.319414
00:00:00.249	1.316484	1.295238	1.313553
00:00:00.249	1.316484	1.301099	1.309890
00:00:00.249	1.328938	1.317949	1.312821
00:00:00.250	1.322344	1.320879	1.315018
00:00:00.250	1.318681	1.316484	1.305495
00:00:00.250	1.315018	1.306227	1.306227
00:00:00.251	1.309890	1.312821	1.304029
00:00:00.251	1.309890	1.312821	1.302564
00:00:00.252	1.295238	1.303297	1.290110
00:00:00.252	1.300366	1.315751	1.290842
00:00:00.252	1.307692	1.328205	1.287179
00:00:00.253	1.307692	1.299634	1.300366
00:00:00.253	1.306960	1.273260	1.298901
00:00:00.253	1.304762	1.272527	1.280586
00:00:00.254	1.314286	1.295971	1.306960
00:00:00.254	1.321612	1.300366	1.312088
00:00:00.254	1.320147	1.300366	1.312821
00:00:00.255	1.328938	1.303297	1.313553
00:00:00.255	1.317216	1.295238	1.309158
00:00:00.255	1.320147	1.301832	1.309890
00:00:00.256	1.323810	1.317216	1.312088
00:00:00.256	1.302564	1.300366	1.295238
00:00:00.257	1.309890	1.315018	1.312088
00:00:00.257	1.304762	1.315018	1.300366
00:00:00.257	1.293040	1.306227	1.287912
00:00:00.258	1.305495	1.312088	1.303297
00:00:00.258	1.295238	1.306960	1.290110
00:00:00.258	1.290842	1.309890	1.298168
00:00:00.259	1.309158	1.313553	1.303297
00:00:00.259	1.318681	1.314286	1.290842
00:00:00.259	1.323077	1.315751	1.279121
00:00:00.260	1.322344	1.309158	1.298168
00:00:00.260	1.309158	1.298901	1.308425
00:00:00.260	1.329670	1.309890	1.325275
00:00:00.261	1.326740	1.301832	1.317216
00:00:00.261	1.299634	1.295238	1.320147
00:00:00.262	1.301832	1.299634	1.325275
00:00:00.262	1.310623	1.300366	1.332601
00:00:00.262	1.311355	1.296703	1.334799
00:00:00.263	1.312821	1.298168	1.300366
00:00:00.263	1.294505	1.298168	1.288645
00:00:00.263	1.292308	1.306227	1.282784
00:00:00.265	1.284982	1.306227	1.290110
00:00:00.265	1.298901	1.314286	1.291575
00:00:00.265	1.308425	1.317216	1.292308
00:00:00.267	1.301832	1.302564	1.283516
00:00:00.267	1.294505	1.304029	1.284249
00:00:00.267	1.309158	1.315018	1.287912
00:00:00.267	1.313553	1.322344	1.302564
00:00:00.301	1.328205	1.321612	1.314286
00:00:00.301	1.315751	1.293773	1.336264
00:00:00.301	1.331868	1.296703	1.343590
00:00:00.301	1.328205	1.302564	1.326740
00:00:00.301	1.317216	1.309158	1.311355
00:00:00.301	1.309890	1.298901	1.293773
00:00:00.301	1.291575	1.282051	1.298901
00:00:00.301	1.295238	1.294505	1.295238
00:00:00.301	1.279853	1.295238	1.290842
00:00:00.301	1.259341	1.298901	1.298901
00:00:00.305	1.281319	1.300366	1.294505
00:00:00.305	1.287912	1.290842	1.284249
00:00:00.305	1.323810	1.295238	1.287179
00:00:00.305	1.317949	1.301832	1.302564
00:00:00.305	1.304029	1.301099	1.298168
00:00:00.305	1.328938	1.306960	1.307692
00:00:00.305	1.345788	1.309890	1.312821
00:00:00.305	1.358974	1.312088	1.306227
00:00:00.305	1.344322	1.292308	1.300366
00:00:00.305	1.327473	1.295238	1.315018
00:00:00.305	1.298901	1.297436	1.309158
00:00:00.306	1.286447	1.300366	1.309890
00:00:00.307	1.265934	1.306227	1.308425
00:00:00.307	1.261538	1.315018	1.309890
00:00:00.307	1.309890	1.317216	1.304029
00:00:00.307	1.317216	1.309890	1.295238
00:00:00.307	1.317216	1.320147	1.297436
00:00:00.308	1.315018	1.315751	1.295971
00:00:00.308	1.309890	1.311355	1.299634
00:00:00.308	1.304762	1.304029	1.296703
00:00:00.309	1.299634	1.306227	1.300366
00:00:00.309	1.313553	1.306227	1.303297
00:00:00.309	1.306960	1.300366	1.306227
00:00:00.310	1.317216	1.306960	1.313553
00:00:00.310	1.318681	1.308425	1.315751
00:00:00.311	1.306960	1.293040	1.307692
00:00:00.311	1.325275	1.305495	1.316484
00:00:00.311	1.317949	1.297436	1.306960
00:00:00.312	1.309890	1.301832	1.306960
00:00:00.312	1.304762	1.290842	1.295238
00:00:00.312	1.320879	1.295971	1.304029
00:00:00.313	1.320879	1.297436	1.300366
00:00:00.313	1.314286	1.304762	1.300366
00:00:00.313	1.307692	1.296703	1.293040
00:00:00.314	1.317216	1.309890	1.299634
00:00:00.314	1.312088	1.302564	1.287179
00:00:00.315	1.314286	1.313553	1.300366
00:00:00.315	1.311355	1.315018	1.309890
00:00:00.315	1.314286	1.312088	1.306227
00:00:00.316	1.320879	1.305495	1.312088
00:00:00.348	1.324542	1.302564	1.306227
00:00:00.348	1.320147	1.299634	1.308425
00:00:00.348	1.321612	1.303297	1.315751
00:00:00.349	1.322344	1.311355	1.326007
00:00:00.349	1.299634	1.309158	1.313553
00:00:00.350	1.281319	1.309890	1.299634
00:00:00.350	1.288645	1.317216	1.306227
00:00:00.350	1.279853	1.316484	1.305495
00:00:00.351	1.273260	1.306227	1.301099
00:00:00.351	1.276923	1.306960	1.298168
00:00:00.351	1.299634	1.304762	1.297436
00:00:00.352	1.308425	1.306227	1.293773
00:00:00.352	1.322344	1.313553	1.303297
00:00:00.352	1.320879	1.297436	1.290110
00:00:00.353	1.339194	1.290110	1.302564
00:00:00.353	1.324542	1.291575	1.293773
00:00:00.353	1.324542	1.348718	1.308425
00:00:00.354	1.317949	1.341392	1.307692
00:00:00.355	1.275458	1.313553	1.312088
00:00:00.355	1.279853	1.297436	1.317216
00:00:00.355	1.318681	1.282784	1.317949
00:00:00.355	1.347253	1.282784	1.315751
00:00:00.356	1.396337	1.292308	1.308425
00:00:00.357	1.364103	1.255678	1.299634
00:00:00.357	1.345055	1.246886	1.286447
00:00:00.357	1.290842	1.262271	1.291575
00:00:00.357	1.276190	1.290842	1.295238
00:00:00.357	1.226374	1.301832	1.290842
00:00:00.358	1.249817	1.321612	1.295971
00:00:00.358	1.271062	1.336996	1.305495
00:00:00.359	1.314286	1.344322	1.294505
00:00:00.359	1.320879	1.355311	1.319414
00:00:00.359	1.309890	1.341392	1.309158
00:00:00.360	1.350916	1.336264	1.315751
00:00:00.360	1.336996	1.299634	1.281319
00:00:00.360	1.326007	1.287912	1.298168
00:00:00.362	1.300366	1.280586	1.307692
00:00:00.362	1.276190	1.268132	1.314286
00:00:00.362	1.195604	1.260073	1.320879
00:00:00.364	1.225641	1.269597	1.313553
00:00:00.364	1.295238	1.299634	1.318681
00:00:00.364	1.369963	1.304029	1.313553
00:00:00.364	1.438095	1.313553	1.329670
00:00:00.364	1.402198	1.315751	1.290110
00:00:00.364	1.347253	1.315751	1.279121
00:00:00.364	1.297436	1.315018	1.276923
00:00:00.364	1.274725	1.330403	1.295238
00:00:00.368	1.254945	1.322344	1.297436
00:00:00.368	1.253480	1.312821	1.293773
00:00:00.368	1.283516	1.307692	1.300366
00:00:00.400	1.273260	1.280586	1.287912
00:00:00.400	1.311355	1.298901	1.300366
00:00:00.400	1.312088	1.305495	1.308425
00:00:00.400	1.298901	1.289377	1.310623
00:00:00.400	1.322344	1.321612	1.323077
00:00:00.400	1.321612	1.321612	1.293773
00:00:00.400	1.326007	1.324542	1.306227
00:00:00.400	1.312088	1.314286	1.304029
00:00:00.400	1.316484	1.301832	1.298901
00:00:00.401	1.320147	1.311355	1.340659
00:00:00.401	1.314286	1.308425	1.320879
00:00:00.401	1.325275	1.297436	1.312821
00:00:00.402	1.288645	1.257143	1.276923
00:00:00.402	1.300366	1.295971	1.292308
00:00:00.403	1.315751	1.318681	1.295971
00:00:00.403	1.312821	1.334799	1.304762
00:00:00.403	1.307692	1.328938	1.298168
00:00:00.404	1.315751	1.308425	1.295971
00:00:00.404	1.314286	1.293040	1.282051
00:00:00.404	1.310623	1.308425	1.273993
00:00:00.405	1.294505	1.319414	1.276190
00:00:00.405	1.270330	1.294505	1.304762
00:00:00.405	1.296703	1.284982	1.361905
00:00:00.406	1.348718	1.285714	1.353846
00:00:00.407	1.394139	1.273260	1.356777
00:00:00.407	1.420513	1.321612	1.316484
00:00:00.407	1.400000	1.378022	1.291575
00:00:00.407	1.347253	1.323810	1.284982
00:00:00.408	1.331136	1.293773	1.288645
00:00:00.408	1.268864	1.304029	1.285714
00:00:00.408	1.237363	1.326007	1.299634
00:00:00.409	1.249817	1.312821	1.295971
00:00:00.409	1.234432	1.311355	1.304029
00:00:00.409	1.195604	1.293040	1.308425
00:00:00.410	1.183150	1.270330	1.299634
00:00:00.410	1.265201	1.282784	1.304029
00:00:00.410	1.356777	1.276923	1.312821
00:00:00.411	1.451282	1.249817	1.313553
00:00:00.411	1.439560	1.247619	1.312821
00:00:00.411	1.343590	1.279121	1.310623
00:00:00.412	1.292308	1.290842	1.309158
00:00:00.412	1.276923	1.301099	1.306960
00:00:00.413	1.269597	1.326007	1.306960
00:00:00.413	1.270330	1.324542	1.294505
00:00:00.413	1.263736	1.311355	1.290842
00:00:00.414	1.263004	1.301832	1.297436
00:00:00.414	1.276923	1.293040	1.291575
00:00:00.414	1.281319	1.267399	1.276190
00:00:00.415	1.324542	1.266667	1.279853
00:00:00.415	1.342857	1.290842	1.288645
00:00:00.447	1.402198	1.314286	1.303297
00:00:00.448	1.460073	1.334799	1.312821
00:00:00.448	1.397070	1.340659	1.316484
00:00:00.448	1.326007	1.331868	1.323810
00:00:00.449	1.254945	1.332601	1.322344
00:00:00.449	1.262271	1.336996	1.316484
00:00:00.449	1.243956	1.316484	1.297436
00:00:00.450	1.256410	1.318681	1.292308
00:00:00.450	1.270330	1.322344	1.296703
00:00:00.450	1.260073	1.331136	1.300366
00:00:00.451	1.290842	1.318681	1.294505
00:00:00.451	1.324542	1.313553	1.296703
00:00:00.453	1.328938	1.316484	1.302564
00:00:00.453	1.309158	1.314286	1.295971
00:00:00.453	1.326740	1.311355	1.298901
00:00:00.453	1.336264	1.321612	1.303297
00:00:00.453	1.345788	1.326740	1.314286
00:00:00.453	1.318681	1.314286	1.314286
00:00:00.454	1.294505	1.294505	1.313553
00:00:00.454	1.339194	1.276190	1.305495
00:00:00.454	1.378755	1.293773	1.322344
00:00:00.455	1.402198	1.383150	1.309158
00:00:00.455	1.374359	1.398535	1.309890
00:00:00.455	1.271062	1.331136	1.308425
00:00:00.456	1.162637	1.266667	1.287912
00:00:00.456	1.167033	1.268864	1.281319
00:00:00.457	1.262271	1.274725	1.283516
00:00:00.457	1.432967	1.289377	1.293040
00:00:00.457	1.465934	1.262271	1.296703
00:00:00.460	1.372161	1.235165	1.304029
00:00:00.460	1.276923	1.264469	1.298168
00:00:00.460	1.230769	1.348718	1.300366
00:00:00.460	1.199267	1.357509	1.321612
00:00:00.460	1.253480	1.317216	1.341392
00:00:00.460	1.304762	1.271795	1.312821
00:00:00.460	1.331868	1.229304	1.304762
00:00:00.460	1.334066	1.232967	1.304762
00:00:00.460	1.334799	1.255678	1.305495
00:00:00.464	1.356044	1.274725	1.317949
00:00:00.464	1.345788	1.284982	1.305495
00:00:00.464	1.307692	1.308425	1.304029
00:00:00.464	1.264469	1.304762	1.295238
00:00:00.464	1.254945	1.317216	1.290110
00:00:00.464	1.293773	1.350916	1.297436
00:00:00.464	1.289377	1.347253	1.276190
00:00:00.464	1.277656	1.339927	1.284249
00:00:00.464	1.248352	1.300366	1.276923
00:00:00.464	1.310623	1.301099	1.282051
00:00:00.464	1.317949	1.316484	1.327473
00:00:00.465	1.333333	1.339927	1.332601
00:00:00.497	1.357509	1.331868	1.326740
00:00:00.497	1.372161	1.323810	1.305495
00:00:00.498	1.367033	1.339927	1.300366
00:00:00.498	1.352381	1.351648	1.317216
00:00:00.498	1.338462	1.326740	1.314286
00:00:00.499	1.296703	1.303297	1.300366
00:00:00.499	1.299634	1.276190	1.308425
00:00:00.499	1.288645	1.260806	1.300366
00:00:00.500	1.294505	1.271062	1.296703
00:00:00.500	1.301832	1.279121	1.297436
00:00:00.501	1.286447	1.273260	1.300366
00:00:00.501	1.280586	1.281319	1.296703
00:00:00.501	1.293773	1.294505	1.298901
00:00:00.502	1.334066	1.299634	1.292308
00:00:00.502	1.347253	1.332601	1.305495
00:00:00.502	1.298168	1.350183	1.317216
00:00:00.503	1.328205	1.322344	1.315018
00:00:00.503	1.339194	1.276923	1.317216
00:00:00.503	1.364103	1.238095	1.304029
00:00:00.504	1.395604	1.238828	1.305495
00:00:00.504	1.380952	1.273993	1.309890
00:00:00.504	1.308425	1.320147	1.303297
00:00:00.505	1.221978	1.342857	1.298168
00:00:00.505	1.147253	1.342857	1.287912
00:00:00.506	1.157509	1.353114	1.279853
00:00:00.506	1.187546	1.343590	1.290110
00:00:00.506	1.287912	1.293773	1.298901
00:00:00.507	1.329670	1.294505	1.303297
00:00:00.507	1.336264	1.315751	1.308425
00:00:00.507	1.336996	1.309158	1.298901
00:00:00.508	1.315751	1.309158	1.304762
00:00:00.508	1.280586	1.336996	1.304029
00:00:00.508	1.310623	1.330403	1.292308
00:00:00.509	1.361905	1.328938	1.314286
00:00:00.509	1.386081	1.306227	1.312088
00:00:00.509	1.342857	1.345788	1.314286
00:00:00.510	1.331868	1.473993	1.315018
00:00:00.510	1.306960	1.466667	1.300366
00:00:00.511	1.335531	1.353846	1.300366
00:00:00.511	1.352381	1.249817	1.309158
00:00:00.511	1.316484	1.172161	1.303297
00:00:00.512	1.297436	1.154579	1.300366
00:00:00.512	1.282784	1.162637	1.291575
00:00:00.512	1.291575	1.195604	1.298168
00:00:00.513	1.298901	1.194872	1.296703
00:00:00.513	1.289377	1.249084	1.291575
00:00:00.513	1.285714	1.285714	1.284982
00:00:00.514	1.246886	1.320879	1.295971
00:00:00.514	1.273260	1.333333	1.293773
00:00:00.514	1.302564	1.350916	1.306960
00:00:00.547	1.358974	1.336996	1.308425
00:00:00.547	1.416117	1.313553	1.307692
00:00:00.547	1.417582	1.303297	1.318681
00:00:00.548	1.369231	1.316484	1.314286
00:00:00.548	1.311355	1.396337	1.315018
00:00:00.548	1.257143	1.397802	1.315018
00:00:00.549	1.274725	1.327473	1.307692
00:00:00.549	1.293773	1.268132	1.312821
00:00:00.551	1.263736	1.254212	1.302564
00:00:00.551	1.255678	1.279853	1.290110
00:00:00.551	1.263004	1.297436	1.303297
00:00:00.551	1.291575	1.309890	1.292308
00:00:00.551	1.287912	1.314286	1.283516
00:00:00.551	1.312088	1.306960	1.289377
00:00:00.553	1.313553	1.315751	1.293040
00:00:00.553	1.293040	1.350916	1.289377
00:00:00.553	1.309890	1.361172	1.303297
00:00:00.554	1.313553	1.356044	1.318681
00:00:00.554	1.309158	1.308425	1.327473
00:00:00.554	1.309890	1.246886	1.315751
00:00:00.556	1.354579	1.256410	1.322344
00:00:00.556	1.353846	1.268864	1.320879
00:00:00.556	1.327473	1.296703	1.314286
00:00:00.556	1.313553	1.334066	1.320879
00:00:00.556	1.271062	1.370696	1.308425
00:00:00.556	1.298901	1.342857	1.302564
00:00:00.556	1.334799	1.350183	1.265934
00:00:00.556	1.333333	1.302564	1.284249
00:00:00.560	1.333333	1.276190	1.290842
00:00:00.560	1.326740	1.282784	1.299634
00:00:00.560	1.325275	1.361172	1.312088
00:00:00.560	1.336264	1.347985	1.304029
00:00:00.560	1.300366	1.271062	1.311355
00:00:00.560	1.246886	1.230769	1.303297
00:00:00.560	1.273993	1.253480	1.317949
00:00:00.560	1.316484	1.254212	1.292308
00:00:00.560	1.367766	1.264469	1.283516
00:00:00.560	1.382418	1.237363	1.292308
00:00:00.560	1.333333	1.248352	1.332601
00:00:00.561	1.342857	1.319414	1.354579
00:00:00.561	1.309158	1.346520	1.374359
00:00:00.561	1.293773	1.315018	1.324542
00:00:00.562	1.253480	1.333333	1.303297
00:00:00.562	1.251282	1.320147	1.295238
00:00:00.562	1.273260	1.342857	1.279853
00:00:00.564	1.290842	1.361905	1.289377
00:00:00.564	1.300366	1.330403	1.284249
00:00:00.564	1.286447	1.292308	1.281319
00:00:00.564	1.276190	1.264469	1.270330
00:00:00.564	1.279853	1.282051	1.281319
00:00:00.596	1.294505	1.303297	1.303297
00:00:00.597	1.296703	1.288645	1.303297
00:00:00.597	1.348718	1.271062	1.316484
00:00:00.597	1.358974	1.268864	1.306227
00:00:00.598	1.364835	1.295238	1.305495
00:00:00.598	1.345788	1.364835	1.311355
00:00:00.599	1.312088	1.402930	1.321612
00:00:00.599	1.295971	1.367033	1.304029
00:00:00.599	1.284982	1.321612	1.298901
00:00:00.600	1.254945	1.289377	1.288645
00:00:00.600	1.290110	1.276190	1.287179
00:00:00.600	1.364103	1.264469	1.297436
00:00:00.601	1.422711	1.254212	1.303297
00:00:00.601	1.401465	1.241758	1.300366
00:00:00.601	1.312821	1.295971	1.298901
00:00:00.602	1.235165	1.341392	1.300366
00:00:00.602	1.177289	1.329670	1.303297
00:00:00.602	1.228571	1.311355	1.300366
00:00:00.603	1.268864	1.290842	1.312821
00:00:00.603	1.329670	1.304762	1.316484
00:00:00.604	1.369963	1.334799	1.322344
00:00:00.604	1.331136	1.341392	1.321612
00:00:00.604	1.298168	1.317216	1.319414
00:00:00.605	1.301099	1.301099	1.316484
00:00:00.605	1.300366	1.279121	1.312088
00:00:00.605	1.317216	1.276923	1.294505
00:00:00.606	1.315751	1.319414	1.282784
00:00:00.606	1.331868	1.384615	1.300366
00:00:00.606	1.367033	1.409524	1.306227
00:00:00.607	1.341392	1.357509	1.300366
00:00:00.607	1.291575	1.246886	1.285714
00:00:00.607	1.284249	1.180952	1.287912
00:00:00.608	1.306960	1.188278	1.297436
00:00:00.608	1.321612	1.200733	1.288645
00:00:00.609	1.366300	1.247619	1.296703
00:00:00.609	1.358974	1.274725	1.306960
00:00:00.609	1.303297	1.293040	1.306960
00:00:00.610	1.272527	1.328938	1.316484
00:00:00.610	1.255678	1.372161	1.318681
00:00:00.610	1.252015	1.453480	1.323810
00:00:00.611	1.252747	1.438095	1.323810
00:00:00.611	1.264469	1.387546	1.301099
00:00:00.611	1.314286	1.344322	1.300366
00:00:00.612	1.345788	1.305495	1.308425
00:00:00.612	1.320879	1.290842	1.295971
00:00:00.613	1.300366	1.276190	1.306960
00:00:00.613	1.290842	1.222711	1.284249
00:00:00.614	1.272527	1.224908	1.291575
00:00:00.614	1.268132	1.260073	1.299634
00:00:00.614	1.269597	1.291575	1.295238
00:00:00.646	1.359707	1.288645	1.303297
00:00:00.646	1.352381	1.275458	1.300366
00:00:00.650	1.375092	1.271062	1.312088
00:00:00.650	1.408791	1.280586	1.315018
00:00:00.650	1.421245	1.303297	1.310623
00:00:00.650	1.375824	1.322344	1.316484
00:00:00.650	1.259341	1.312821	1.300366
00:00:00.650	1.221245	1.311355	1.309158
00:00:00.650	1.169231	1.287912	1.297436
00:00:00.650	1.204396	1.320147	1.293040
00:00:00.650	1.292308	1.356777	1.301832
00:00:00.650	1.320879	1.373626	1.273993
00:00:00.650	1.359707	1.367033	1.276923
00:00:00.652	1.317949	1.347253	1.287179
00:00:00.652	1.324542	1.325275	1.297436
00:00:00.652	1.326740	1.328938	1.310623
00:00:00.652	1.328205	1.298168	1.313553
00:00:00.652	1.313553	1.249084	1.315018
00:00:00.656	1.287912	1.243223	1.322344
00:00:00.656	1.293773	1.260073	1.328938
00:00:00.656	1.294505	1.248352	1.308425
00:00:00.656	1.294505	1.222711	1.306227
00:00:00.656	1.312088	1.235897	1.314286
00:00:00.656	1.326740	1.263736	1.306960
00:00:00.656	1.323810	1.283516	1.297436
00:00:00.656	1.298168	1.296703	1.294505
00:00:00.656	1.313553	1.340659	1.299634
00:00:00.656	1.306960	1.336996	1.292308
00:00:00.656	1.304762	1.340659	1.290842
00:00:00.658	1.315018	1.322344	1.282051
00:00:00.658	1.319414	1.344322	1.289377
00:00:00.658	1.321612	1.357509	1.290842
00:00:00.658	1.335531	1.375092	1.292308
00:00:00.658	1.339927	1.364103	1.300366
00:00:00.658	1.304029	1.328938	1.290842
00:00:00.659	1.326740	1.275458	1.330403
00:00:00.659	1.338462	1.239560	1.346520
00:00:00.659	1.322344	1.234432	1.344322
00:00:00.660	1.291575	1.253480	1.321612
00:00:00.660	1.361905	1.343590	1.306960
00:00:00.660	1.448352	1.460806	1.309890
00:00:00.661	1.358974	1.419048	1.309158
00:00:00.661	1.219048	1.362637	1.300366
00:00:00.662	1.134799	1.272527	1.275458
00:00:00.662	1.117216	1.235897	1.284249
00:00:00.662	1.198535	1.208059	1.293773
00:00:00.663	1.286447	1.162637	1.276190
00:00:00.663	1.295238	1.157509	1.271795
00:00:00.663	1.309158	1.249817	1.295971
00:00:00.664	1.308425	1.339927	1.303297
00:00:00.696	1.281319	1.350183	1.302564
00:00:00.696	1.332601	1.335531	1.306960
00:00:00.697	1.402930	1.338462	1.309890
00:00:00.697	1.438828	1.307692	1.305495
00:00:00.697	1.446154	1.296703	1.318681
00:00:00.698	1.366300	1.287912	1.298168
00:00:00.698	1.290110	1.308425	1.312088
00:00:00.698	1.263736	1.326740	1.315018
00:00:00.699	1.282784	1.329670	1.306227
00:00:00.700	1.298901	1.364103	1.307692
00:00:00.700	1.289377	1.350183	1.294505
00:00:00.700	1.295971	1.369231	1.304029
00:00:00.700	1.285714	1.372161	1.295238
00:00:00.701	1.284982	1.298901	1.293040
00:00:00.701	1.305495	1.287912	1.295238
00:00:00.701	1.323810	1.269597	1.297436
00:00:00.702	1.341392	1.271062	1.309890
00:00:00.702	1.347253	1.309158	1.306227
00:00:00.702	1.334799	1.323810	1.316484
00:00:00.703	1.337729	1.273993	1.317216
00:00:00.703	1.311355	1.243223	1.309890
00:00:00.703	1.300366	1.272527	1.322344
00:00:00.704	1.290842	1.281319	1.309890
00:00:00.704	1.303297	1.306227	1.317216
00:00:00.704	1.309890	1.317216	1.317949
00:00:00.705	1.297436	1.272527	1.300366
00:00:00.705	1.291575	1.323077	1.300366
00:00:00.706	1.302564	1.360440	1.300366
00:00:00.706	1.248352	1.348718	1.296703
00:00:00.706	1.268132	1.321612	1.294505
00:00:00.707	1.342125	1.300366	1.296703
00:00:00.707	1.412454	1.279121	1.290110
00:00:00.707	1.378755	1.284982	1.298901
00:00:00.708	1.311355	1.276923	1.287912
00:00:00.708	1.285714	1.268864	1.297436
00:00:00.708	1.276923	1.305495	1.313553
00:00:00.709	1.276190	1.331136	1.317949
00:00:00.709	1.282051	1.339194	1.310623
00:00:00.709	1.284982	1.335531	1.312088
00:00:00.710	1.302564	1.321612	1.313553
00:00:00.710	1.306227	1.291575	1.309890
00:00:00.711	1.328205	1.283516	1.310623
00:00:00.711	1.326740	1.279121	1.304029
00:00:00.711	1.319414	1.299634	1.306227
00:00:00.712	1.343590	1.323077	1.306960
00:00:00.712	1.334066	1.345788	1.303297
00:00:00.712	1.275458	1.347253	1.302564
00:00:00.714	1.284249	1.348718	1.295238
00:00:00.714	1.306960	1.345055	1.295971
00:00:00.714	1.345055	1.357509	1.300366
00:00:00.748	1.358242	1.354579	1.307692
00:00:00.748	1.337729	1.332601	1.303297
00:00:00.748	1.316484	1.282051	1.304029
00:00:00.748	1.290842	1.253480	1.312088
00:00:00.748	1.265934	1.243956	1.314286
00:00:00.748	1.273993	1.210256	1.309158
00:00:00.749	1.304762	1.210256	1.307692
00:00:00.749	1.326740	1.238828	1.311355
00:00:00.749	1.279853	1.250549	1.306960
00:00:00.749	1.287179	1.315751	1.309158
00:00:00.749	1.293040	1.429304	1.296703
00:00:00.753	1.333333	1.422711	1.305495
00:00:00.753	1.354579	1.353846	1.302564
00:00:00.753	1.350183	1.295971	1.302564
00:00:00.753	1.328205	1.264469	1.295971
00:00:00.753	1.303297	1.294505	1.301832
00:00:00.753	1.278388	1.287179	1.313553
00:00:00.753	1.264469	1.267399	1.305495
00:00:00.753	1.300366	1.250549	1.305495
00:00:00.753	1.350916	1.245421	1.310623
00:00:00.753	1.339194	1.269597	1.312821
00:00:00.753	1.348718	1.334799	1.310623
00:00:00.753	1.382418	1.367766	1.315018
00:00:00.754	1.386813	1.390476	1.317216
00:00:00.754	1.335531	1.342857	1.306227
00:00:00.755	1.298168	1.266667	1.306960
00:00:00.755	1.269597	1.265934	1.299634
00:00:00.755	1.258608	1.311355	1.298168
00:00:00.756	1.252747	1.325275	1.291575
00:00:00.756	1.263004	1.334799	1.297436
00:00:00.756	1.268864	1.347253	1.299634
00:00:00.757	1.259341	1.315018	1.284982
00:00:00.757	1.285714	1.312821	1.300366
00:00:00.757	1.304762	1.311355	1.306960
00:00:00.758	1.312088	1.282051	1.298901
00:00:00.758	1.341392	1.294505	1.312088
00:00:00.758	1.326740	1.285714	1.311355
00:00:00.759	1.323810	1.292308	1.293040
00:00:00.759	1.322344	1.312088	1.308425
00:00:00.760	1.310623	1.312088	1.302564
00:00:00.760	1.306227	1.318681	1.316484
00:00:00.760	1.303297	1.301099	1.304029
00:00:00.761	1.317216	1.302564	1.298168
00:00:00.761	1.316484	1.321612	1.310623
00:00:00.761	1.308425	1.318681	1.304029
00:00:00.762	1.304029	1.326740	1.310623
00:00:00.762	1.298901	1.323810	1.300366
00:00:00.762	1.295238	1.338462	1.286447
00:00:00.763	1.322344	1.343590	1.293040
00:00:00.763	1.341392	1.315018	1.276923
00:00:00.795	1.334066	1.298168	1.299634
00:00:00.796	1.328205	1.303297	1.300366
00:00:00.796	1.335531	1.290110	1.312821
00:00:00.796	1.339194	1.284982	1.312821
00:00:00.797	1.342857	1.288645	1.312821
00:00:00.797	1.304029	1.279853	1.312088
00:00:00.797	1.288645	1.261538	1.309158
00:00:00.798	1.287179	1.257143	1.306227
00:00:00.798	1.268132	1.272527	1.307692
00:00:00.799	1.234432	1.295971	1.300366
00:00:00.799	1.216117	1.291575	1.299634
00:00:00.799	1.235165	1.274725	1.290842
00:00:00.800	1.293040	1.265934	1.300366
00:00:00.800	1.379487	1.289377	1.293773
00:00:00.800	1.421978	1.321612	1.304762
00:00:00.801	1.426374	1.290842	1.287912
00:00:00.801	1.365568	1.277656	1.287179
00:00:00.801	1.306227	1.307692	1.305495
00:00:00.802	1.249817	1.315751	1.290842
00:00:00.802	1.268132	1.333333	1.298901
00:00:00.802	1.304762	1.326740	1.312088
00:00:00.803	1.312088	1.319414	1.322344
00:00:00.803	1.315018	1.326007	1.318681
00:00:00.804	1.323077	1.331868	1.318681
00:00:00.804	1.328205	1.342857	1.312088
00:00:00.804	1.309158	1.339927	1.306227
00:00:00.806	1.294505	1.345788	1.307692
00:00:00.806	1.313553	1.345788	1.306960
00:00:00.806	1.299634	1.276923	1.290842
00:00:00.806	1.298168	1.257143	1.290110
00:00:00.806	1.290842	1.244689	1.293773
00:00:00.806	1.276190	1.230037	1.288645
00:00:00.807	1.294505	1.267399	1.290842
00:00:00.808	1.323810	1.307692	1.298901
00:00:00.808	1.331868	1.352381	1.304762
00:00:00.808	1.381685	1.350916	1.306960
00:00:00.808	1.375092	1.320879	1.304762
00:00:00.810	1.385348	1.321612	1.312088
00:00:00.810	1.328205	1.339927	1.304762
00:00:00.810	1.249817	1.342125	1.316484
00:00:00.813	1.210256	1.320147	1.310623
00:00:00.813	1.180220	1.274725	1.300366
00:00:00.813	1.218315	1.243956	1.298901
00:00:00.813	1.266667	1.242491	1.298901
00:00:00.813	1.334799	1.249817	1.306960
00:00:00.813	1.330403	1.276923	1.306960
00:00:00.813	1.323077	1.285714	1.298901
00:00:00.813	1.325275	1.338462	1.300366
00:00:00.813	1.323077	1.378755	1.282051
00:00:00.813	1.315751	1.367766	1.297436
00:00:00.845	1.334066	1.312821	1.298901
00:00:00.845	1.327473	1.268864	1.304029
00:00:00.849	1.331868	1.251282	1.297436
00:00:00.849	1.326007	1.250549	1.305495
00:00:00.849	1.331136	1.271795	1.317216
00:00:00.849	1.328205	1.297436	1.317949
00:00:00.849	1.315018	1.319414	1.317216
00:00:00.849	1.305495	1.308425	1.306227
00:00:00.849	1.303297	1.317216	1.299634
00:00:00.849	1.291575	1.349451	1.308425
00:00:00.849	1.301099	1.338462	1.300366
00:00:00.849	1.296703	1.310623	1.296703
00:00:00.849	1.311355	1.336264	1.305495
00:00:00.850	1.320879	1.352381	1.290842
00:00:00.851	1.347253	1.353114	1.299634
00:00:00.851	1.315751	1.345055	1.296703
00:00:00.851	1.306227	1.343590	1.308425
00:00:00.851	1.296703	1.295238	1.306227
00:00:00.851	1.309158	1.249084	1.308425
00:00:00.852	1.335531	1.224176	1.310623
00:00:00.852	1.364835	1.233700	1.314286
00:00:00.853	1.343590	1.259341	1.318681
00:00:00.853	1.297436	1.282051	1.318681
00:00:00.853	1.271062	1.312088	1.315751
00:00:00.854	1.244689	1.322344	1.298168
00:00:00.854	1.238828	1.312821	1.309158
00:00:00.854	1.279853	1.295971	1.304029
00:00:00.855	1.322344	1.297436	1.306960
00:00:00.855	1.345788	1.298168	1.298168
00:00:00.855	1.337729	1.300366	1.292308
00:00:00.856	1.298168	1.320879	1.293773
00:00:00.856	1.296703	1.331136	1.287912
00:00:00.857	1.265201	1.328938	1.280586
00:00:00.857	1.317949	1.326007	1.300366
00:00:00.857	1.334799	1.326740	1.303297
00:00:00.858	1.322344	1.329670	1.306227
00:00:00.858	1.318681	1.324542	1.311355
00:00:00.858	1.326007	1.298901	1.313553
00:00:00.859	1.315751	1.272527	1.310623
00:00:00.859	1.307692	1.265201	1.312088
00:00:00.859	1.316484	1.282051	1.314286
00:00:00.860	1.308425	1.290110	1.308425
00:00:00.860	1.314286	1.274725	1.307692
00:00:00.860	1.336996	1.300366	1.307692
00:00:00.861	1.324542	1.320147	1.300366
00:00:00.861	1.304029	1.303297	1.293773
00:00:00.862	1.297436	1.282784	1.299634
00:00:00.862	1.304762	1.283516	1.290842
00:00:00.862	1.295238	1.318681	1.287179
00:00:00.863	1.320879	1.366300	1.304029
00:00:00.895	1.326007	1.345788	1.300366
00:00:00.895	1.315751	1.319414	1.302564
00:00:00.895	1.310623	1.319414	1.302564
00:00:00.896	1.297436	1.339194	1.295971
00:00:00.896	1.325275	1.365568	1.301832
00:00:00.897	1.292308	1.356044	1.306960
00:00:00.897	1.254945	1.320879	1.291575
00:00:00.897	1.287179	1.304762	1.330403
00:00:00.898	1.289377	1.268864	1.336264
00:00:00.898	1.308425	1.236630	1.350183
00:00:00.898	1.326740	1.221978	1.316484
00:00:00.899	1.315018	1.215385	1.296703
00:00:00.899	1.312088	1.252747	1.292308
00:00:00.899	1.314286	1.271795	1.285714
00:00:00.900	1.319414	1.279853	1.290842
00:00:00.900	1.337729	1.336996	1.300366
00:00:00.900	1.332601	1.379487	1.289377
00:00:00.901	1.310623	1.382418	1.292308
00:00:00.901	1.280586	1.361172	1.306960
00:00:00.902	1.273260	1.330403	1.306960
00:00:00.902	1.268132	1.309890	1.303297
00:00:00.902	1.298168	1.358242	1.315751
00:00:00.904	1.351648	1.345788	1.312821
00:00:00.904	1.357509	1.300366	1.315018
00:00:00.904	1.361905	1.265934	1.318681
00:00:00.904	1.348718	1.241758	1.305495
00:00:00.904	1.338462	1.250549	1.308425
00:00:00.904	1.334799	1.252015	1.305495
00:00:00.907	1.300366	1.232967	1.289377
00:00:00.907	1.253480	1.264469	1.294505
00:00:00.907	1.200000	1.281319	1.288645
00:00:00.907	1.234432	1.304029	1.295238
00:00:00.907	1.300366	1.341392	1.292308
00:00:00.909	1.367766	1.382418	1.296703
00:00:00.909	1.394139	1.369231	1.295971
00:00:00.909	1.376557	1.338462	1.304029
00:00:00.909	1.339927	1.333333	1.307692
00:00:00.909	1.304029	1.348718	1.319414
00:00:00.909	1.254945	1.339927	1.314286
00:00:00.909	1.306227	1.346520	1.317216
00:00:00.909	1.301832	1.312088	1.304762
00:00:00.909	1.305495	1.294505	1.312821
00:00:00.913	1.252747	1.268864	1.310623
00:00:00.913	1.298168	1.271062	1.309158
00:00:00.913	1.345055	1.254945	1.298901
00:00:00.913	1.390476	1.270330	1.297436
00:00:00.913	1.375824	1.300366	1.299634
00:00:00.913	1.295238	1.330403	1.293040
00:00:00.913	1.226374	1.323077	1.281319
00:00:00.913	1.219780	1.304029	1.295238
00:00:00.945	1.220513	1.265934	1.300366
00:00:00.945	1.256410	1.261538	1.306960
00:00:00.945	1.284249	1.246886	1.305495
00:00:00.946	1.310623	1.276190	1.314286
00:00:00.946	1.322344	1.282051	1.314286
00:00:00.946	1.323810	1.277656	1.317216
00:00:00.947	1.338462	1.314286	1.314286
00:00:00.947	1.336264	1.320879	1.308425
00:00:00.947	1.343590	1.321612	1.311355
00:00:00.948	1.350916	1.333333	1.311355
00:00:00.948	1.338462	1.347985	1.318681
00:00:00.948	1.315018	1.352381	1.308425
00:00:00.949	1.320147	1.327473	1.300366
00:00:00.949	1.312088	1.320879	1.287912
00:00:00.950	1.304762	1.312088	1.290842
00:00:00.950	1.305495	1.324542	1.296703
00:00:00.950	1.315018	1.361172	1.300366
00:00:00.951	1.328938	1.347985	1.296703
00:00:00.951	1.357509	1.331868	1.296703
00:00:00.951	1.344322	1.304029	1.309890
00:00:00.952	1.308425	1.243223	1.304762
00:00:00.952	1.272527	1.254945	1.306227
00:00:00.952	1.284982	1.256410	1.314286
00:00:00.953	1.303297	1.189011	1.309158
00:00:00.953	1.322344	1.226374	1.306960
00:00:00.953	1.295238	1.292308	1.302564
00:00:00.954	1.284982	1.303297	1.300366
00:00:00.954	1.304762	1.306960	1.299634
00:00:00.955	1.329670	1.318681	1.298901
00:00:00.955	1.304029	1.336996	1.298901
00:00:00.955	1.299634	1.353846	1.306960
00:00:00.956	1.276190	1.345788	1.290110
00:00:00.956	1.313553	1.342125	1.299634
00:00:00.956	1.340659	1.315018	1.302564
00:00:00.957	1.318681	1.304762	1.300366
00:00:00.957	1.304762	1.305495	1.299634
00:00:00.957	1.295238	1.306960	1.300366
00:00:00.958	1.294505	1.293040	1.308425
00:00:00.958	1.295971	1.289377	1.311355
00:00:00.958	1.243223	1.287912	1.312088
00:00:00.959	1.241758	1.298901	1.312088
00:00:00.959	1.288645	1.303297	1.312088
00:00:00.960	1.374359	1.316484	1.315018
00:00:00.961	1.405861	1.326740	1.312821
00:00:00.961	1.419780	1.345055	1.312088
00:00:00.961	1.349451	1.314286	1.295238
00:00:00.961	1.311355	1.309158	1.303297
00:00:00.961	1.261538	1.305495	1.298168
00:00:00.962	1.235165	1.312821	1.300366
00:00:00.962	1.273260	1.312821	1.286447
