timestamp	ch1	ch2	ch3
00:00:00.000	1.319414	1.276923	1.306227
00:00:00.000	1.326007	1.282784	1.334066
00:00:00.001	1.316484	1.288645	1.323077
00:00:00.001	1.312088	1.284249	1.319414
00:00:00.002	1.310623	1.287912	1.304762
00:00:00.002	1.298168	1.302564	1.304029
00:00:00.002	1.312088	1.325275	1.308425
00:00:00.003	1.301832	1.322344	1.287912
00:00:00.035	1.303297	1.332601	1.276190
00:00:00.035	1.297436	1.325275	1.259341
00:00:00.035	1.307692	1.334066	1.265201
00:00:00.036	1.306227	1.326740	1.300366
00:00:00.036	1.310623	1.325275	1.323810
00:00:00.037	1.314286	1.316484	1.327473
00:00:00.037	1.305495	1.294505	1.315751
00:00:00.038	1.315751	1.289377	1.306227
00:00:00.038	1.320147	1.293040	1.311355
00:00:00.038	1.321612	1.292308	1.308425
00:00:00.038	1.317216	1.298168	1.306960
00:00:00.039	1.312088	1.288645	1.290842
00:00:00.039	1.315751	1.306227	1.309890
00:00:00.039	1.311355	1.308425	1.306960
00:00:00.040	1.312088	1.317949	1.301832
00:00:00.040	1.311355	1.329670	1.311355
00:00:00.041	1.299634	1.315751	1.323810
00:00:00.041	1.309158	1.327473	1.323077
00:00:00.041	1.309158	1.331136	1.310623
00:00:00.042	1.298168	1.314286	1.303297
00:00:00.042	1.306227	1.312088	1.300366
00:00:00.042	1.317949	1.313553	1.306960
00:00:00.043	1.321612	1.300366	1.301832
00:00:00.043	1.312088	1.289377	1.292308
00:00:00.043	1.308425	1.284249	1.300366
00:00:00.044	1.317216	1.300366	1.305495
00:00:00.044	1.313553	1.300366	1.309890
00:00:00.044	1.306227	1.299634	1.313553
00:00:00.045	1.312088	1.297436	1.309158
00:00:00.045	1.318681	1.295971	1.306227
00:00:00.046	1.320879	1.300366	1.300366
00:00:00.046	1.312821	1.315018	1.306227
00:00:00.046	1.305495	1.317949	1.309158
00:00:00.047	1.294505	1.317216	1.305495
00:00:00.048	1.328938	1.315018	1.296703
00:00:00.048	1.334799	1.328938	1.306960
00:00:00.048	1.312088	1.317216	1.300366
00:00:00.048	1.302564	1.320147	1.306960
00:00:00.048	1.304029	1.302564	1.304029
00:00:00.049	1.283516	1.285714	1.297436
00:00:00.049	1.271062	1.293040	1.304762
00:00:00.049	1.276923	1.277656	1.297436
00:00:00.050	1.304029	1.295238	1.295238
00:00:00.050	1.320879	1.296703	1.312088
00:00:00.052	1.327473	1.298901	1.311355
00:00:00.052	1.331136	1.309158	1.309158
00:00:00.052	1.320879	1.304029	1.306960
00:00:00.052	1.323810	1.305495	1.309890
00:00:00.052	1.310623	1.301832	1.306227
00:00:00.052	1.308425	1.310623	1.305495
00:00:00.088	1.306227	1.311355	1.304029
00:00:00.088	1.304762	1.320879	1.289377
00:00:00.088	1.306960	1.323810	1.303297
00:00:00.088	1.304762	1.327473	1.306960
00:00:00.088	1.318681	1.331868	1.300366
00:00:00.088	1.308425	1.307692	1.297436
00:00:00.088	1.317949	1.306960	1.315751
00:00:00.088	1.323810	1.307692	1.306227
00:00:00.088	1.310623	1.295971	1.302564
00:00:00.088	1.324542	1.299634	1.309890
00:00:00.088	1.320147	1.293773	1.303297
00:00:00.088	1.309158	1.288645	1.307692
00:00:00.089	1.317216	1.296703	1.302564
00:00:00.090	1.306227	1.285714	1.299634
00:00:00.090	1.314286	1.286447	1.305495
00:00:00.090	1.298168	1.292308	1.296703
00:00:00.090	1.302564	1.323077	1.308425
00:00:00.091	1.295238	1.312821	1.298168
00:00:00.091	1.297436	1.315018	1.297436
00:00:00.091	1.305495	1.320879	1.300366
00:00:00.092	1.310623	1.319414	1.313553
00:00:00.092	1.295238	1.294505	1.304029
00:00:00.092	1.308425	1.297436	1.304029
00:00:00.093	1.309890	1.304762	1.310623
00:00:00.093	1.323810	1.303297	1.300366
00:00:00.093	1.323077	1.298901	1.298901
00:00:00.094	1.315751	1.300366	1.299634
00:00:00.094	1.323810	1.311355	1.312821
00:00:00.095	1.318681	1.304029	1.298168
00:00:00.095	1.323810	1.313553	1.312088
00:00:00.095	1.308425	1.306960	1.302564
00:00:00.096	1.311355	1.320147	1.305495
00:00:00.096	1.295971	1.310623	1.298168
00:00:00.096	1.298901	1.312821	1.303297
00:00:00.097	1.301099	1.319414	1.306227
00:00:00.097	1.305495	1.316484	1.303297
00:00:00.097	1.303297	1.314286	1.306227
00:00:00.098	1.306227	1.306227	1.304762
00:00:00.098	1.315751	1.300366	1.304029
00:00:00.098	1.312821	1.293773	1.308425
00:00:00.099	1.315751	1.294505	1.306227
00:00:00.099	1.320147	1.292308	1.306227
00:00:00.100	1.320879	1.288645	1.306227
00:00:00.100	1.326007	1.309158	1.310623
00:00:00.100	1.312088	1.312821	1.305495
00:00:00.101	1.319414	1.326740	1.306227
00:00:00.101	1.299634	1.315751	1.298168
00:00:00.101	1.311355	1.325275	1.307692
00:00:00.102	1.306227	1.309890	1.305495
00:00:00.102	1.293040	1.298168	1.305495
00:00:00.134	1.292308	1.284249	1.300366
00:00:00.135	1.296703	1.281319	1.292308
00:00:00.135	1.300366	1.291575	1.298168
00:00:00.135	1.306227	1.312821	1.300366
00:00:00.136	1.298168	1.334799	1.304029
00:00:00.136	1.315018	1.344322	1.304029
00:00:00.136	1.313553	1.326007	1.306960
00:00:00.137	1.325275	1.318681	1.309890
00:00:00.137	1.312821	1.299634	1.305495
00:00:00.137	1.323810	1.295971	1.315751
00:00:00.138	1.322344	1.291575	1.309890
00:00:00.138	1.317216	1.285714	1.304762
00:00:00.139	1.316484	1.288645	1.310623
00:00:00.139	1.313553	1.294505	1.304029
00:00:00.139	1.297436	1.295971	1.298168
00:00:00.140	1.310623	1.317216	1.307692
00:00:00.141	1.298901	1.307692	1.293040
00:00:00.141	1.306960	1.331136	1.309890
00:00:00.141	1.300366	1.317216	1.300366
00:00:00.141	1.306227	1.322344	1.311355
00:00:00.141	1.295238	1.304762	1.298901
00:00:00.143	1.309890	1.306227	1.306960
00:00:00.145	1.315751	1.284249	1.307692
00:00:00.145	1.321612	1.291575	1.315018
00:00:00.145	1.318681	1.294505	1.309890
00:00:00.145	1.316484	1.296703	1.306960
00:00:00.145	1.314286	1.321612	1.299634
00:00:00.145	1.326740	1.359707	1.306227
00:00:00.145	1.321612	1.338462	1.302564
00:00:00.146	1.317949	1.280586	1.304762
00:00:00.146	1.317949	1.246886	1.312088
00:00:00.146	1.304762	1.243956	1.299634
00:00:00.146	1.309890	1.264469	1.311355
00:00:00.146	1.304762	1.298168	1.305495
00:00:00.146	1.294505	1.328938	1.297436
00:00:00.150	1.306960	1.334066	1.307692
00:00:00.150	1.314286	1.326740	1.303297
00:00:00.150	1.294505	1.313553	1.299634
00:00:00.150	1.311355	1.328205	1.308425
00:00:00.150	1.318681	1.330403	1.303297
00:00:00.150	1.307692	1.306960	1.290110
00:00:00.150	1.317949	1.320147	1.309158
00:00:00.150	1.313553	1.313553	1.305495
00:00:00.150	1.323077	1.310623	1.309158
00:00:00.150	1.320147	1.287179	1.295238
00:00:00.150	1.315751	1.290110	1.306227
00:00:00.151	1.313553	1.292308	1.296703
00:00:00.151	1.310623	1.289377	1.300366
00:00:00.151	1.307692	1.300366	1.309890
00:00:00.152	1.304762	1.305495	1.305495
00:00:00.184	1.297436	1.313553	1.307692
00:00:00.184	1.306960	1.331136	1.307692
00:00:00.185	1.303297	1.326740	1.312088
00:00:00.185	1.301099	1.324542	1.306227
00:00:00.185	1.309890	1.331136	1.306227
00:00:00.186	1.306960	1.337729	1.304762
00:00:00.186	1.328205	1.339194	1.300366
00:00:00.186	1.336264	1.319414	1.308425
00:00:00.187	1.318681	1.301832	1.312088
00:00:00.187	1.313553	1.293773	1.308425
00:00:00.188	1.315018	1.267399	1.309890
00:00:00.188	1.312088	1.241758	1.306227
00:00:00.188	1.321612	1.264469	1.307692
00:00:00.189	1.317216	1.286447	1.306227
00:00:00.189	1.313553	1.304029	1.309890
00:00:00.189	1.308425	1.336264	1.300366
00:00:00.190	1.292308	1.334799	1.297436
00:00:00.190	1.309158	1.342125	1.307692
00:00:00.190	1.296703	1.317949	1.290110
00:00:00.191	1.306227	1.322344	1.307692
00:00:00.191	1.307692	1.325275	1.308425
00:00:00.191	1.306227	1.325275	1.307692
00:00:00.192	1.314286	1.316484	1.305495
00:00:00.192	1.314286	1.301099	1.306960
00:00:00.193	1.318681	1.303297	1.309890
00:00:00.193	1.323810	1.297436	1.305495
00:00:00.193	1.320879	1.293773	1.304762
00:00:00.194	1.320879	1.296703	1.307692
00:00:00.195	1.318681	1.294505	1.309890
00:00:00.195	1.317949	1.297436	1.309890
00:00:00.195	1.315018	1.299634	1.313553
00:00:00.195	1.306960	1.305495	1.309158
00:00:00.195	1.301099	1.297436	1.296703
00:00:00.196	1.297436	1.312821	1.306227
00:00:00.196	1.306227	1.323810	1.306227
00:00:00.196	1.303297	1.330403	1.311355
00:00:00.197	1.298168	1.334066	1.309158
00:00:00.197	1.306227	1.345055	1.304762
00:00:00.198	1.320879	1.323810	1.307692
00:00:00.198	1.317216	1.305495	1.309890
00:00:00.198	1.315751	1.287912	1.297436
00:00:00.199	1.314286	1.288645	1.310623
00:00:00.199	1.317949	1.284249	1.300366
00:00:00.199	1.320147	1.287912	1.304762
00:00:00.200	1.326007	1.298168	1.309890
00:00:00.200	1.315751	1.300366	1.302564
00:00:00.200	1.312088	1.298901	1.308425
00:00:00.201	1.300366	1.294505	1.305495
00:00:00.201	1.316484	1.304762	1.306960
00:00:00.202	1.307692	1.308425	1.306960
00:00:00.234	1.302564	1.321612	1.302564
00:00:00.234	1.295971	1.314286	1.300366
00:00:00.234	1.305495	1.312821	1.300366
00:00:00.235	1.306960	1.315751	1.296703
00:00:00.235	1.310623	1.318681	1.311355
00:00:00.235	1.306227	1.319414	1.304762
00:00:00.236	1.302564	1.304029	1.301832
00:00:00.236	1.323810	1.311355	1.312088
00:00:00.237	1.323810	1.305495	1.312088
00:00:00.237	1.307692	1.296703	1.298168
00:00:00.237	1.324542	1.308425	1.313553
00:00:00.238	1.327473	1.296703	1.306960
00:00:00.238	1.320147	1.287179	1.311355
00:00:00.238	1.310623	1.282784	1.304762
00:00:00.239	1.299634	1.292308	1.306227
00:00:00.239	1.312088	1.323810	1.304029
00:00:00.239	1.297436	1.315018	1.297436
00:00:00.240	1.307692	1.330403	1.310623
00:00:00.240	1.291575	1.326740	1.293040
00:00:00.240	1.293773	1.319414	1.292308
00:00:00.241	1.306227	1.318681	1.295971
00:00:00.241	1.301832	1.299634	1.302564
00:00:00.243	1.309890	1.284982	1.310623
00:00:00.243	1.315751	1.287912	1.306227
00:00:00.243	1.312088	1.264469	1.304029
00:00:00.243	1.324542	1.279121	1.308425
00:00:00.243	1.310623	1.301832	1.306227
00:00:00.243	1.325275	1.321612	1.306227
00:00:00.244	1.328205	1.317216	1.312821
00:00:00.247	1.321612	1.299634	1.306960
00:00:00.247	1.303297	1.287912	1.303297
00:00:00.247	1.304029	1.297436	1.305495
00:00:00.247	1.311355	1.309158	1.305495
00:00:00.247	1.307692	1.297436	1.302564
00:00:00.247	1.302564	1.309158	1.310623
00:00:00.247	1.300366	1.312821	1.309890
00:00:00.247	1.293773	1.312821	1.309158
00:00:00.247	1.298168	1.306960	1.301832
00:00:00.247	1.310623	1.315018	1.293773
00:00:00.248	1.309890	1.339927	1.308425
00:00:00.248	1.320879	1.339927	1.304762
00:00:00.248	1.309890	1.299634	1.305495
00:00:00.249	1.315018	1.301832	1.306960
00:00:00.249	1.327473	1.315751	1.306227
00:00:00.249	1.317216	1.294505	1.309158
00:00:00.250	1.318681	1.287179	1.308425
00:00:00.250	1.316484	1.289377	1.305495
00:00:00.251	1.317949	1.301099	1.311355
00:00:00.251	1.313553	1.309890	1.306227
00:00:00.251	1.300366	1.315751	1.309890
00:00:00.283	1.300366	1.327473	1.299634
00:00:00.284	1.298168	1.329670	1.306960
00:00:00.284	1.308425	1.323077	1.311355
00:00:00.284	1.297436	1.304029	1.296703
00:00:00.285	1.297436	1.305495	1.298901
00:00:00.285	1.312088	1.317216	1.303297
00:00:00.286	1.309890	1.305495	1.307692
00:00:00.286	1.312088	1.304762	1.303297
00:00:00.286	1.316484	1.330403	1.302564
00:00:00.287	1.309158	1.343590	1.296703
00:00:00.287	1.326740	1.327473	1.306227
00:00:00.287	1.326740	1.306227	1.306960
00:00:00.288	1.313553	1.286447	1.301832
00:00:00.288	1.317949	1.276923	1.306960
00:00:00.288	1.309890	1.216850	1.300366
00:00:00.289	1.315751	1.230037	1.306960
00:00:00.289	1.312088	1.296703	1.309158
00:00:00.290	1.309890	1.337729	1.320879
00:00:00.290	1.304762	1.328938	1.305495
00:00:00.290	1.303297	1.318681	1.306227
00:00:00.291	1.304762	1.320879	1.304762
00:00:00.291	1.303297	1.335531	1.303297
00:00:00.291	1.306960	1.360440	1.304762
00:00:00.292	1.309158	1.370696	1.306960
00:00:00.292	1.315018	1.333333	1.298901
00:00:00.292	1.320147	1.296703	1.306227
00:00:00.293	1.317949	1.271795	1.300366
00:00:00.293	1.315751	1.252747	1.304029
00:00:00.293	1.315018	1.256410	1.304029
00:00:00.294	1.314286	1.252747	1.301832
00:00:00.294	1.312088	1.212454	1.299634
00:00:00.295	1.307692	1.257143	1.300366
00:00:00.295	1.312088	1.309890	1.304762
00:00:00.295	1.298168	1.308425	1.300366
00:00:00.296	1.303297	1.313553	1.298901
00:00:00.296	1.301099	1.326740	1.303297
00:00:00.296	1.301832	1.345788	1.312088
00:00:00.297	1.303297	1.341392	1.304029
00:00:00.297	1.304029	1.335531	1.309158
00:00:00.297	1.308425	1.309890	1.303297
00:00:00.298	1.322344	1.317216	1.312088
00:00:00.298	1.315018	1.320879	1.310623
00:00:00.299	1.326740	1.344322	1.315018
00:00:00.299	1.322344	1.323810	1.306227
00:00:00.299	1.327473	1.320147	1.312088
00:00:00.300	1.326007	1.310623	1.307692
00:00:00.300	1.309158	1.303297	1.304762
00:00:00.300	1.313553	1.301832	1.309890
00:00:00.301	1.299634	1.288645	1.304029
00:00:00.302	1.300366	1.281319	1.298901
00:00:00.333	1.304762	1.301832	1.293040
00:00:00.334	1.303297	1.317216	1.304029
00:00:00.334	1.300366	1.324542	1.298901
00:00:00.334	1.294505	1.321612	1.302564
00:00:00.335	1.301832	1.320879	1.294505
00:00:00.335	1.309158	1.318681	1.304029
00:00:00.335	1.314286	1.318681	1.309158
00:00:00.337	1.320147	1.313553	1.306960
00:00:00.337	1.323077	1.305495	1.306960
00:00:00.337	1.319414	1.293040	1.295971
00:00:00.339	1.317949	1.295971	1.311355
00:00:00.339	1.311355	1.289377	1.306227
00:00:00.339	1.312821	1.282784	1.294505
00:00:00.339	1.309890	1.280586	1.295238
00:00:00.339	1.309158	1.283516	1.297436
00:00:00.340	1.312088	1.293040	1.305495
00:00:00.340	1.306960	1.285714	1.294505
00:00:00.340	1.312821	1.306960	1.313553
00:00:00.340	1.310623	1.320147	1.309158
00:00:00.340	1.295971	1.328205	1.303297
00:00:00.340	1.315018	1.337729	1.310623
00:00:00.344	1.309890	1.328205	1.300366
00:00:00.344	1.311355	1.306227	1.304762
00:00:00.344	1.316484	1.294505	1.310623
00:00:00.344	1.299634	1.288645	1.304029
00:00:00.344	1.312088	1.295238	1.294505
00:00:00.344	1.318681	1.317216	1.306227
00:00:00.344	1.323810	1.312821	1.309158
00:00:00.344	1.312821	1.303297	1.300366
00:00:00.344	1.314286	1.300366	1.292308
00:00:00.344	1.317949	1.303297	1.312821
00:00:00.344	1.310623	1.290110	1.299634
00:00:00.345	1.308425	1.298168	1.306227
00:00:00.345	1.300366	1.301832	1.306227
00:00:00.345	1.305495	1.316484	1.308425
00:00:00.346	1.296703	1.306227	1.291575
00:00:00.346	1.303297	1.321612	1.297436
00:00:00.346	1.304762	1.326740	1.302564
00:00:00.347	1.312088	1.328938	1.304762
00:00:00.347	1.298901	1.305495	1.300366
00:00:00.347	1.309158	1.298901	1.295238
00:00:00.348	1.315018	1.300366	1.297436
00:00:00.348	1.312088	1.299634	1.301832
00:00:00.349	1.318681	1.287912	1.305495
00:00:00.349	1.326007	1.295238	1.309158
00:00:00.349	1.317216	1.284982	1.297436
00:00:00.350	1.316484	1.298168	1.306227
00:00:00.350	1.316484	1.305495	1.311355
00:00:00.350	1.315018	1.305495	1.306227
00:00:00.351	1.306960	1.315751	1.309158
00:00:00.383	1.309158	1.318681	1.304029
00:00:00.383	1.304029	1.311355	1.304029
00:00:00.384	1.293040	1.312821	1.308425
00:00:00.384	1.303297	1.326007	1.306960
00:00:00.384	1.306227	1.323077	1.304762
00:00:00.385	1.300366	1.320879	1.309158
00:00:00.385	1.312821	1.326007	1.308425
00:00:00.385	1.317216	1.325275	1.309890
00:00:00.386	1.321612	1.307692	1.314286
00:00:00.386	1.312821	1.280586	1.306227
00:00:00.386	1.322344	1.274725	1.305495
00:00:00.387	1.320147	1.271795	1.306227
00:00:00.387	1.320879	1.276923	1.309158
00:00:00.388	1.306227	1.293773	1.300366
00:00:00.388	1.317949	1.309890	1.306960
00:00:00.388	1.310623	1.310623	1.309890
00:00:00.389	1.296703	1.309890	1.304029
00:00:00.389	1.303297	1.317949	1.305495
00:00:00.389	1.309158	1.320879	1.306960
00:00:00.390	1.300366	1.329670	1.293773
00:00:00.390	1.303297	1.360440	1.294505
00:00:00.390	1.305495	1.393407	1.306960
00:00:00.391	1.309890	1.324542	1.306960
00:00:00.391	1.309158	1.286447	1.300366
00:00:00.391	1.322344	1.284982	1.311355
00:00:00.392	1.325275	1.265201	1.309158
00:00:00.392	1.321612	1.248352	1.304029
00:00:00.393	1.320879	1.232234	1.297436
00:00:00.393	1.317216	1.212454	1.296703
00:00:00.393	1.320147	1.268132	1.295238
00:00:00.394	1.306960	1.290842	1.289377
00:00:00.394	1.310623	1.298168	1.300366
00:00:00.394	1.314286	1.339927	1.303297
00:00:00.395	1.309158	1.355311	1.304029
00:00:00.395	1.309890	1.350916	1.312088
00:00:00.395	1.306227	1.336264	1.310623
00:00:00.397	1.304029	1.334799	1.310623
00:00:00.397	1.302564	1.322344	1.312088
00:00:00.397	1.299634	1.309890	1.309158
00:00:00.397	1.304762	1.309158	1.304029
00:00:00.397	1.309158	1.313553	1.304762
00:00:00.398	1.320147	1.318681	1.306960
00:00:00.398	1.315018	1.321612	1.304029
00:00:00.398	1.323077	1.334066	1.311355
00:00:00.399	1.331868	1.330403	1.311355
00:00:00.399	1.330403	1.319414	1.306227
00:00:00.399	1.323077	1.300366	1.308425
00:00:00.401	1.320147	1.285714	1.315018
00:00:00.401	1.317949	1.294505	1.309158
00:00:00.401	1.307692	1.306960	1.304762
00:00:00.433	1.309158	1.312821	1.312088
00:00:00.433	1.306960	1.310623	1.310623
00:00:00.433	1.304029	1.323810	1.304029
00:00:00.435	1.299634	1.320147	1.304762
00:00:00.435	1.297436	1.320879	1.300366
00:00:00.435	1.302564	1.313553	1.302564
00:00:00.435	1.309890	1.309158	1.300366
00:00:00.435	1.307692	1.289377	1.291575
00:00:00.435	1.321612	1.293773	1.308425
00:00:00.440	1.315751	1.293773	1.307692
00:00:00.440	1.315018	1.293040	1.312821
00:00:00.440	1.324542	1.298168	1.311355
00:00:00.440	1.309890	1.284982	1.300366
00:00:00.440	1.318681	1.297436	1.309890
00:00:00.440	1.315751	1.304029	1.308425
00:00:00.440	1.312088	1.307692	1.305495
00:00:00.440	1.317949	1.315751	1.304762
00:00:00.440	1.297436	1.345055	1.305495
00:00:00.440	1.304762	1.349451	1.306227
00:00:00.440	1.309890	1.337729	1.315751
00:00:00.440	1.302564	1.306227	1.295238
00:00:00.440	1.304029	1.308425	1.306960
00:00:00.440	1.306227	1.296703	1.312821
00:00:00.441	1.308425	1.290110	1.309158
00:00:00.441	1.315018	1.279121	1.308425
00:00:00.442	1.304762	1.263004	1.297436
00:00:00.442	1.312088	1.294505	1.304029
00:00:00.442	1.320147	1.287179	1.300366
00:00:00.443	1.319414	1.282051	1.314286
00:00:00.443	1.322344	1.284982	1.304029
00:00:00.443	1.320147	1.301832	1.304762
00:00:00.444	1.319414	1.316484	1.308425
00:00:00.444	1.312088	1.321612	1.306960
00:00:00.444	1.300366	1.318681	1.303297
00:00:00.445	1.306227	1.322344	1.306227
00:00:00.445	1.299634	1.320879	1.295238
00:00:00.446	1.304762	1.326007	1.309890
00:00:00.446	1.302564	1.320147	1.304762
00:00:00.446	1.310623	1.321612	1.311355
00:00:00.447	1.299634	1.312088	1.301832
00:00:00.447	1.301099	1.312821	1.304762
00:00:00.447	1.314286	1.317216	1.306227
00:00:00.448	1.317949	1.300366	1.300366
00:00:00.448	1.320879	1.315018	1.309890
00:00:00.448	1.316484	1.330403	1.306227
00:00:00.449	1.310623	1.305495	1.306960
00:00:00.449	1.317216	1.297436	1.304029
00:00:00.449	1.312088	1.308425	1.293773
00:00:00.450	1.312088	1.317216	1.307692
00:00:00.450	1.306227	1.261538	1.295238
00:00:00.482	1.308425	1.239560	1.306960
00:00:00.483	1.309158	1.269597	1.307692
00:00:00.483	1.308425	1.306960	1.307692
00:00:00.483	1.312088	1.309158	1.309890
00:00:00.484	1.305495	1.273993	1.301832
00:00:00.484	1.309158	1.296703	1.303297
00:00:00.484	1.309890	1.320147	1.305495
00:00:00.485	1.306960	1.324542	1.306227
00:00:00.485	1.314286	1.324542	1.308425
00:00:00.486	1.311355	1.323077	1.306227
00:00:00.486	1.318681	1.331136	1.302564
00:00:00.486	1.324542	1.321612	1.300366
00:00:00.487	1.317949	1.317949	1.304762
00:00:00.488	1.319414	1.312821	1.304762
00:00:00.488	1.316484	1.320147	1.307692
00:00:00.488	1.304029	1.353846	1.298901
00:00:00.488	1.298168	1.399267	1.307692
00:00:00.488	1.304029	1.362637	1.306227
00:00:00.489	1.295971	1.324542	1.308425
00:00:00.489	1.306227	1.294505	1.309158
00:00:00.490	1.303297	1.252015	1.306960
00:00:00.490	1.302564	1.210989	1.295971
00:00:00.490	1.296703	1.192674	1.282784
00:00:00.491	1.302564	1.200733	1.294505
00:00:00.491	1.312821	1.200000	1.296703
00:00:00.491	1.321612	1.298901	1.304029
00:00:00.492	1.315751	1.338462	1.305495
00:00:00.492	1.319414	1.328205	1.308425
00:00:00.492	1.324542	1.317949	1.309890
00:00:00.493	1.319414	1.305495	1.303297
00:00:00.493	1.314286	1.312821	1.307692
00:00:00.493	1.306960	1.316484	1.303297
00:00:00.494	1.312821	1.331868	1.314286
00:00:00.494	1.309158	1.342857	1.308425
00:00:00.496	1.301832	1.327473	1.299634
00:00:00.496	1.309890	1.334066	1.309158
00:00:00.496	1.292308	1.323077	1.295238
00:00:00.499	1.300366	1.334066	1.310623
00:00:00.499	1.304029	1.326007	1.306227
00:00:00.499	1.303297	1.315018	1.295238
00:00:00.499	1.300366	1.305495	1.295238
00:00:00.499	1.316484	1.311355	1.310623
00:00:00.499	1.320879	1.311355	1.315018
00:00:00.499	1.312821	1.309158	1.306960
00:00:00.499	1.323810	1.296703	1.302564
00:00:00.499	1.320147	1.292308	1.306227
00:00:00.499	1.323810	1.296703	1.308425
00:00:00.499	1.320147	1.298168	1.309890
00:00:00.503	1.317216	1.293773	1.298901
00:00:00.503	1.309158	1.291575	1.299634
00:00:00.532	1.308425	1.311355	1.293773
00:00:00.532	1.309158	1.341392	1.300366
00:00:00.536	1.306227	1.355311	1.309890
00:00:00.536	1.301099	1.347253	1.300366
00:00:00.536	1.293040	1.339194	1.306960
00:00:00.536	1.314286	1.332601	1.313553
00:00:00.536	1.295971	1.295971	1.293773
00:00:00.536	1.306960	1.282051	1.308425
00:00:00.536	1.315018	1.248352	1.306227
00:00:00.536	1.312088	1.238095	1.300366
00:00:00.536	1.307692	1.265934	1.291575
00:00:00.536	1.320879	1.267399	1.300366
00:00:00.536	1.315751	1.279853	1.302564
00:00:00.537	1.304762	1.309158	1.312088
00:00:00.537	1.296703	1.328205	1.300366
00:00:00.537	1.318681	1.358974	1.309890
00:00:00.538	1.304762	1.330403	1.300366
00:00:00.538	1.309158	1.289377	1.306227
00:00:00.539	1.306960	1.280586	1.315018
00:00:00.540	1.304029	1.287912	1.312088
00:00:00.540	1.310623	1.281319	1.306227
00:00:00.540	1.297436	1.256410	1.300366
00:00:00.540	1.309890	1.274725	1.302564
00:00:00.540	1.312088	1.326740	1.303297
00:00:00.541	1.314286	1.353114	1.300366
00:00:00.541	1.322344	1.348718	1.306960
00:00:00.541	1.320879	1.331868	1.309890
00:00:00.542	1.322344	1.315751	1.303297
00:00:00.542	1.320879	1.300366	1.296703
00:00:00.542	1.323077	1.315018	1.313553
00:00:00.543	1.314286	1.307692	1.303297
00:00:00.543	1.312088	1.308425	1.300366
00:00:00.544	1.315751	1.323077	1.308425
00:00:00.544	1.312088	1.334799	1.309890
00:00:00.544	1.306960	1.328938	1.306227
00:00:00.545	1.295238	1.347253	1.295238
00:00:00.545	1.302564	1.389744	1.306227
00:00:00.545	1.298901	1.382418	1.302564
00:00:00.546	1.311355	1.326007	1.304029
00:00:00.546	1.304762	1.268864	1.299634
00:00:00.546	1.300366	1.210989	1.297436
00:00:00.547	1.298901	1.177289	1.293773
00:00:00.547	1.310623	1.195604	1.295971
00:00:00.547	1.320147	1.249084	1.309890
00:00:00.548	1.331136	1.272527	1.317216
00:00:00.548	1.317216	1.298901	1.306960
00:00:00.549	1.316484	1.311355	1.314286
00:00:00.549	1.309890	1.304029	1.305495
00:00:00.549	1.309890	1.309890	1.301832
00:00:00.550	1.315018	1.320879	1.304762
00:00:00.582	1.313553	1.327473	1.309158
00:00:00.582	1.302564	1.339194	1.298901
00:00:00.583	1.309158	1.345788	1.312088
00:00:00.583	1.301832	1.335531	1.305495
00:00:00.583	1.298168	1.324542	1.302564
00:00:00.584	1.311355	1.331136	1.306960
00:00:00.584	1.303297	1.318681	1.295238
00:00:00.584	1.316484	1.322344	1.313553
00:00:00.585	1.318681	1.314286	1.309158
00:00:00.585	1.315018	1.306960	1.308425
00:00:00.585	1.312088	1.306227	1.312821
00:00:00.586	1.307692	1.301099	1.306960
00:00:00.586	1.298168	1.294505	1.304029
00:00:00.586	1.312088	1.299634	1.307692
00:00:00.587	1.306960	1.299634	1.302564
00:00:00.587	1.314286	1.301832	1.307692
00:00:00.589	1.314286	1.304029	1.304029
00:00:00.589	1.312821	1.312088	1.300366
00:00:00.589	1.298901	1.306960	1.297436
00:00:00.589	1.304762	1.314286	1.304762
00:00:00.589	1.306960	1.315751	1.294505
00:00:00.589	1.306227	1.317216	1.304029
00:00:00.590	1.312088	1.318681	1.304762
00:00:00.590	1.312088	1.316484	1.309158
00:00:00.590	1.311355	1.310623	1.305495
00:00:00.591	1.315018	1.308425	1.307692
00:00:00.592	1.329670	1.312088	1.315751
00:00:00.592	1.326740	1.309158	1.309890
00:00:00.592	1.331136	1.305495	1.314286
00:00:00.592	1.320147	1.298901	1.306960
00:00:00.593	1.326007	1.302564	1.306227
00:00:00.593	1.317216	1.293773	1.297436
00:00:00.593	1.317216	1.330403	1.303297
00:00:00.594	1.315018	1.357509	1.310623
00:00:00.594	1.305495	1.339927	1.302564
00:00:00.594	1.298168	1.335531	1.304762
00:00:00.596	1.303297	1.309158	1.306960
00:00:00.596	1.303297	1.273993	1.304029
00:00:00.596	1.303297	1.273260	1.305495
00:00:00.596	1.291575	1.253480	1.291575
00:00:00.596	1.290110	1.273993	1.293040
00:00:00.600	1.299634	1.316484	1.306960
00:00:00.601	1.306227	1.312088	1.312821
00:00:00.601	1.309890	1.273260	1.307692
00:00:00.601	1.315018	1.259341	1.307692
00:00:00.601	1.320147	1.271062	1.304762
00:00:00.601	1.320147	1.280586	1.306227
00:00:00.601	1.323810	1.284982	1.299634
00:00:00.601	1.319414	1.303297	1.295238
00:00:00.601	1.304029	1.304029	1.300366
00:00:00.632	1.323077	1.301832	1.305495
00:00:00.632	1.314286	1.293040	1.298168
00:00:00.632	1.311355	1.309890	1.304762
00:00:00.633	1.297436	1.333333	1.302564
00:00:00.633	1.304029	1.345788	1.309158
00:00:00.633	1.306227	1.334066	1.306227
00:00:00.634	1.306227	1.330403	1.315018
00:00:00.634	1.310623	1.334799	1.316484
00:00:00.634	1.311355	1.319414	1.307692
00:00:00.635	1.321612	1.317949	1.304029
00:00:00.635	1.311355	1.309158	1.308425
00:00:00.635	1.317216	1.309158	1.308425
00:00:00.636	1.317216	1.309890	1.309158
00:00:00.636	1.317949	1.301832	1.309158
00:00:00.637	1.330403	1.314286	1.309890
00:00:00.637	1.323810	1.319414	1.312088
00:00:00.637	1.304029	1.300366	1.300366
00:00:00.638	1.315018	1.314286	1.306227
00:00:00.638	1.304029	1.303297	1.295238
00:00:00.638	1.301099	1.314286	1.303297
00:00:00.639	1.306960	1.320879	1.300366
00:00:00.639	1.307692	1.323077	1.305495
00:00:00.639	1.295971	1.307692	1.300366
00:00:00.640	1.313553	1.315018	1.305495
00:00:00.640	1.308425	1.306227	1.301832
00:00:00.641	1.306960	1.301099	1.306227
00:00:00.641	1.320147	1.301099	1.306227
00:00:00.641	1.313553	1.291575	1.296703
00:00:00.642	1.325275	1.305495	1.311355
00:00:00.642	1.315751	1.300366	1.307692
00:00:00.642	1.303297	1.280586	1.291575
00:00:00.643	1.315018	1.302564	1.306227
00:00:00.643	1.301832	1.295238	1.291575
00:00:00.644	1.312088	1.294505	1.304029
00:00:00.644	1.305495	1.295238	1.302564
00:00:00.644	1.301099	1.300366	1.305495
00:00:00.644	1.304029	1.316484	1.304762
00:00:00.645	1.301099	1.333333	1.303297
00:00:00.645	1.308425	1.347253	1.308425
00:00:00.646	1.309158	1.328938	1.305495
00:00:00.646	1.312088	1.320879	1.304762
00:00:00.646	1.317216	1.331136	1.306227
