timestamp	ch1	ch2	ch3
00:00:00.000	1.320147	1.276190	1.326007
00:00:00.000	1.312088	1.270330	1.315018
00:00:00.001	1.311355	1.288645	1.323810
00:00:00.001	1.312088	1.293773	1.311355
00:00:00.002	1.317949	1.303297	1.312088
00:00:00.002	1.306227	1.318681	1.300366
00:00:00.002	1.306227	1.323077	1.299634
00:00:00.003	1.304762	1.316484	1.287912
00:00:00.003	1.315751	1.327473	1.285714
00:00:00.003	1.315751	1.325275	1.283516
00:00:00.004	1.309890	1.314286	1.276190
00:00:00.004	1.309158	1.312821	1.287179
00:00:00.004	1.320147	1.321612	1.306227
00:00:00.005	1.312088	1.317216	1.302564
00:00:00.005	1.300366	1.306960	1.309158
00:00:00.005	1.315751	1.306960	1.328938
00:00:00.006	1.310623	1.298168	1.323077
00:00:00.006	1.311355	1.293773	1.324542
00:00:00.007	1.310623	1.295971	1.322344
00:00:00.007	1.308425	1.282784	1.304029
00:00:00.007	1.309890	1.294505	1.319414
00:00:00.008	1.312821	1.302564	1.309158
00:00:00.008	1.304029	1.299634	1.304762
00:00:00.009	1.312088	1.301832	1.296703
00:00:00.009	1.312088	1.290842	1.279121
00:00:00.009	1.319414	1.309890	1.295238
00:00:00.009	1.305495	1.318681	1.285714
00:00:00.010	1.311355	1.336264	1.293773
00:00:00.010	1.315018	1.333333	1.300366
00:00:00.010	1.306960	1.312821	1.300366
00:00:00.011	1.305495	1.304029	1.306227
00:00:00.011	1.316484	1.312821	1.312821
00:00:00.012	1.305495	1.306227	1.314286
00:00:00.012	1.311355	1.294505	1.328205
00:00:00.012	1.309158	1.265201	1.315751
00:00:00.013	1.319414	1.252015	1.328938
00:00:00.013	1.317216	1.257875	1.322344
00:00:00.013	1.313553	1.272527	1.312088
00:00:00.014	1.313553	1.294505	1.306227
00:00:00.014	1.311355	1.320147	1.293773
00:00:00.014	1.305495	1.331868	1.290842
00:00:00.015	1.312088	1.354579	1.287912
00:00:00.015	1.308425	1.381685	1.286447
00:00:00.016	1.307692	1.386081	1.293040
00:00:00.016	1.312821	1.370696	1.295238
00:00:00.016	1.307692	1.344322	1.298168
00:00:00.018	1.316484	1.327473	1.300366
00:00:00.018	1.309158	1.304762	1.296703
00:00:00.018	1.314286	1.306227	1.319414
00:00:00.019	1.314286	1.278388	1.314286
00:00:00.050	1.312088	1.273260	1.323810
00:00:00.050	1.312088	1.270330	1.328205
00:00:00.053	1.315751	1.279121	1.320147
00:00:00.053	1.312088	1.290842	1.323810
00:00:00.053	1.309890	1.289377	1.304029
00:00:00.053	1.312821	1.302564	1.310623
00:00:00.053	1.310623	1.312821	1.295238
00:00:00.053	1.303297	1.303297	1.281319
00:00:00.053	1.312821	1.323077	1.287179
00:00:00.053	1.310623	1.335531	1.287912
00:00:00.053	1.309158	1.330403	1.279121
00:00:00.054	1.316484	1.341392	1.297436
00:00:00.054	1.314286	1.312821	1.298901
00:00:00.054	1.298901	1.292308	1.296703
00:00:00.055	1.312088	1.301832	1.307692
00:00:00.055	1.314286	1.291575	1.318681
00:00:00.056	1.315751	1.273260	1.326007
00:00:00.056	1.309158	1.245421	1.317216
00:00:00.056	1.312088	1.283516	1.327473
00:00:00.057	1.308425	1.327473	1.318681
00:00:00.057	1.312821	1.331868	1.308425
00:00:00.057	1.316484	1.336264	1.301832
00:00:00.058	1.308425	1.324542	1.304029
00:00:00.058	1.307692	1.303297	1.295238
00:00:00.058	1.309158	1.294505	1.291575
00:00:00.059	1.310623	1.283516	1.290842
00:00:00.059	1.310623	1.284982	1.298168
00:00:00.060	1.300366	1.306960	1.280586
00:00:00.060	1.315018	1.351648	1.300366
00:00:00.060	1.316484	1.337729	1.304029
00:00:00.061	1.322344	1.323810	1.308425
00:00:00.061	1.321612	1.317949	1.318681
00:00:00.061	1.316484	1.296703	1.312821
00:00:00.062	1.309890	1.297436	1.314286
00:00:00.062	1.316484	1.282784	1.323077
00:00:00.062	1.304762	1.262271	1.326740
00:00:00.063	1.300366	1.261538	1.320147
00:00:00.063	1.310623	1.300366	1.315018
00:00:00.063	1.304762	1.300366	1.296703
00:00:00.064	1.313553	1.310623	1.304762
00:00:00.064	1.316484	1.326740	1.298901
00:00:00.065	1.312088	1.326007	1.273260
00:00:00.065	1.311355	1.330403	1.284982
00:00:00.065	1.300366	1.298901	1.282784
00:00:00.066	1.306227	1.302564	1.292308
00:00:00.066	1.306227	1.293773	1.296703
00:00:00.066	1.316484	1.312821	1.302564
00:00:00.067	1.312088	1.332601	1.309158
00:00:00.067	1.306960	1.340659	1.312088
00:00:00.067	1.300366	1.350916	1.309158
00:00:00.100	1.313553	1.356777	1.306960
00:00:00.100	1.305495	1.317216	1.313553
00:00:00.100	1.306227	1.309890	1.326007
00:00:00.101	1.312088	1.301832	1.319414
00:00:00.101	1.315751	1.293773	1.316484
00:00:00.101	1.311355	1.292308	1.303297
00:00:00.102	1.317949	1.301832	1.306227
00:00:00.102	1.320147	1.304762	1.301099
00:00:00.102	1.319414	1.309890	1.299634
00:00:00.103	1.306227	1.307692	1.286447
00:00:00.103	1.329670	1.325275	1.294505
00:00:00.104	1.309890	1.306227	1.291575
00:00:00.104	1.297436	1.293040	1.293773
00:00:00.104	1.315751	1.304029	1.306960
00:00:00.105	1.314286	1.300366	1.312821
00:00:00.105	1.308425	1.295238	1.320147
00:00:00.105	1.297436	1.286447	1.310623
00:00:00.106	1.315751	1.304762	1.323810
00:00:00.106	1.312088	1.306960	1.317216
00:00:00.106	1.314286	1.306227	1.323810
00:00:00.107	1.317216	1.308425	1.320147
00:00:00.107	1.298168	1.290842	1.315751
00:00:00.107	1.294505	1.283516	1.300366
00:00:00.108	1.319414	1.308425	1.305495
00:00:00.108	1.313553	1.313553	1.287179
00:00:00.109	1.306960	1.312821	1.287912
00:00:00.109	1.318681	1.323077	1.288645
00:00:00.109	1.309158	1.317216	1.290110
00:00:00.110	1.311355	1.315751	1.295971
00:00:00.110	1.309158	1.309158	1.298168
00:00:00.110	1.315751	1.302564	1.295971
00:00:00.111	1.324542	1.312088	1.322344
00:00:00.111	1.317949	1.305495	1.317949
00:00:00.111	1.305495	1.300366	1.311355
00:00:00.112	1.304762	1.307692	1.326740
00:00:00.112	1.297436	1.293040	1.308425
00:00:00.112	1.300366	1.294505	1.318681
00:00:00.116	1.317949	1.290842	1.319414
00:00:00.116	1.288645	1.282784	1.297436
00:00:00.116	1.315018	1.301099	1.301832
00:00:00.116	1.317216	1.305495	1.296703
00:00:00.116	1.312088	1.318681	1.293040
00:00:00.116	1.312088	1.331136	1.288645
00:00:00.116	1.303297	1.325275	1.287912
00:00:00.116	1.310623	1.323810	1.292308
00:00:00.116	1.311355	1.313553	1.298901
00:00:00.116	1.309890	1.309890	1.300366
00:00:00.116	1.315018	1.315018	1.309158
00:00:00.119	1.311355	1.304029	1.308425
00:00:00.119	1.309158	1.287179	1.319414
00:00:00.149	1.315751	1.287912	1.322344
00:00:00.150	1.314286	1.291575	1.323077
00:00:00.150	1.312088	1.292308	1.323077
00:00:00.150	1.306960	1.293040	1.315018
00:00:00.151	1.307692	1.304762	1.312821
00:00:00.151	1.317949	1.304029	1.311355
00:00:00.151	1.314286	1.312088	1.303297
00:00:00.152	1.306227	1.320879	1.294505
00:00:00.152	1.306960	1.326007	1.291575
00:00:00.153	1.293040	1.329670	1.284982
00:00:00.153	1.310623	1.350183	1.298168
00:00:00.153	1.306960	1.345788	1.290110
00:00:00.154	1.306227	1.332601	1.299634
00:00:00.154	1.303297	1.313553	1.302564
00:00:00.154	1.301832	1.288645	1.291575
00:00:00.155	1.309890	1.281319	1.315751
00:00:00.155	1.309158	1.263736	1.306960
00:00:00.155	1.312821	1.279853	1.313553
00:00:00.156	1.309158	1.289377	1.320879
00:00:00.156	1.304029	1.287912	1.319414
00:00:00.156	1.316484	1.290842	1.318681
00:00:00.157	1.330403	1.291575	1.317949
00:00:00.157	1.317216	1.311355	1.306227
00:00:00.158	1.321612	1.321612	1.295971
00:00:00.158	1.320147	1.330403	1.293773
00:00:00.158	1.326740	1.341392	1.293773
00:00:00.159	1.310623	1.336996	1.284249
00:00:00.159	1.307692	1.335531	1.290842
00:00:00.159	1.307692	1.324542	1.294505
00:00:00.160	1.312088	1.323810	1.297436
00:00:00.160	1.305495	1.298168	1.292308
00:00:00.160	1.306227	1.270330	1.294505
00:00:00.161	1.306227	1.282051	1.309158
00:00:00.161	1.307692	1.283516	1.317949
00:00:00.161	1.304029	1.276923	1.322344
00:00:00.162	1.302564	1.280586	1.327473
00:00:00.162	1.296703	1.266667	1.315751
00:00:00.163	1.320147	1.279853	1.319414
00:00:00.163	1.314286	1.296703	1.307692
00:00:00.163	1.312088	1.315018	1.309158
00:00:00.164	1.300366	1.314286	1.293040
00:00:00.164	1.312088	1.317949	1.293773
00:00:00.164	1.323077	1.323077	1.298901
00:00:00.165	1.314286	1.340659	1.292308
00:00:00.166	1.303297	1.338462	1.291575
00:00:00.166	1.307692	1.334799	1.287179
00:00:00.166	1.308425	1.320147	1.290110
00:00:00.166	1.314286	1.314286	1.309890
00:00:00.166	1.317216	1.303297	1.309890
00:00:00.167	1.308425	1.297436	1.315018
00:00:00.199	1.313553	1.300366	1.320147
00:00:00.199	1.309890	1.295238	1.314286
00:00:00.200	1.316484	1.297436	1.323810
00:00:00.200	1.312821	1.292308	1.317216
00:00:00.200	1.306227	1.283516	1.315751
00:00:00.201	1.312088	1.279853	1.307692
00:00:00.201	1.321612	1.279853	1.296703
00:00:00.202	1.317216	1.307692	1.300366
00:00:00.202	1.304762	1.332601	1.301832
00:00:00.202	1.305495	1.345788	1.293040
00:00:00.203	1.322344	1.336264	1.290110
00:00:00.203	1.307692	1.326007	1.286447
00:00:00.203	1.314286	1.336264	1.300366
00:00:00.204	1.312088	1.326007	1.304029
00:00:00.204	1.300366	1.316484	1.303297
00:00:00.204	1.303297	1.311355	1.319414
00:00:00.205	1.306227	1.298168	1.312821
00:00:00.205	1.317949	1.295971	1.326007
00:00:00.205	1.315751	1.278388	1.315018
00:00:00.206	1.302564	1.274725	1.314286
00:00:00.206	1.311355	1.294505	1.315751
00:00:00.207	1.306960	1.293773	1.303297
00:00:00.207	1.318681	1.298168	1.312088
00:00:00.207	1.314286	1.310623	1.309158
00:00:00.208	1.316484	1.322344	1.305495
00:00:00.208	1.318681	1.324542	1.295971
00:00:00.208	1.306960	1.324542	1.293040
00:00:00.210	1.303297	1.309158	1.287912
00:00:00.210	1.310623	1.327473	1.291575
00:00:00.210	1.312088	1.312821	1.292308
00:00:00.212	1.327473	1.318681	1.312088
00:00:00.212	1.320879	1.276923	1.304762
00:00:00.212	1.312088	1.249817	1.314286
00:00:00.212	1.320147	1.268132	1.320879
00:00:00.212	1.304029	1.283516	1.313553
00:00:00.212	1.305495	1.307692	1.330403
00:00:00.212	1.304029	1.306227	1.320147
00:00:00.212	1.315018	1.323810	1.314286
00:00:00.215	1.302564	1.336264	1.308425
00:00:00.215	1.309890	1.337729	1.306227
00:00:00.215	1.312088	1.334066	1.305495
00:00:00.215	1.307692	1.321612	1.287912
00:00:00.215	1.319414	1.299634	1.284982
00:00:00.215	1.319414	1.295971	1.287912
00:00:00.215	1.316484	1.291575	1.294505
00:00:00.215	1.312821	1.293040	1.304029
00:00:00.215	1.320147	1.276923	1.293040
00:00:00.217	1.300366	1.276190	1.306227
00:00:00.217	1.291575	1.281319	1.306960
00:00:00.217	1.296703	1.288645	1.309158
00:00:00.250	1.317949	1.323077	1.321612
00:00:00.250	1.306960	1.317216	1.317949
00:00:00.250	1.320879	1.302564	1.326007
00:00:00.250	1.312821	1.306227	1.318681
00:00:00.250	1.306227	1.314286	1.312088
00:00:00.251	1.306227	1.323810	1.316484
00:00:00.251	1.298168	1.320147	1.310623
00:00:00.251	1.312088	1.327473	1.306960
00:00:00.252	1.311355	1.316484	1.291575
00:00:00.252	1.304029	1.323810	1.296703
00:00:00.252	1.321612	1.323077	1.292308
00:00:00.253	1.343590	1.312088	1.295238
00:00:00.253	1.328938	1.311355	1.300366
00:00:00.253	1.332601	1.317949	1.301832
00:00:00.254	1.314286	1.303297	1.298901
00:00:00.254	1.315751	1.313553	1.318681
00:00:00.254	1.309890	1.303297	1.309890
00:00:00.255	1.310623	1.308425	1.323077
00:00:00.255	1.304029	1.290842	1.316484
00:00:00.256	1.293040	1.286447	1.317949
00:00:00.256	1.302564	1.290842	1.320147
00:00:00.256	1.300366	1.287179	1.312821
00:00:00.257	1.297436	1.299634	1.312821
00:00:00.257	1.308425	1.306227	1.302564
00:00:00.257	1.297436	1.312821	1.296703
00:00:00.258	1.315751	1.322344	1.295238
00:00:00.258	1.318681	1.328938	1.290842
00:00:00.258	1.312821	1.322344	1.289377
00:00:00.259	1.309158	1.314286	1.296703
00:00:00.259	1.314286	1.306960	1.303297
00:00:00.260	1.301832	1.317949	1.297436
00:00:00.260	1.316484	1.317949	1.312088
00:00:00.260	1.310623	1.312821	1.315018
00:00:00.261	1.308425	1.320879	1.318681
00:00:00.261	1.317216	1.330403	1.319414
00:00:00.261	1.305495	1.298901	1.318681
00:00:00.262	1.295238	1.280586	1.306960
00:00:00.262	1.295971	1.283516	1.302564
00:00:00.262	1.316484	1.289377	1.319414
00:00:00.263	1.316484	1.276923	1.295238
00:00:00.263	1.316484	1.295238	1.308425
00:00:00.263	1.328205	1.313553	1.300366
00:00:00.264	1.324542	1.325275	1.303297
00:00:00.264	1.309890	1.322344	1.292308
00:00:00.265	1.312088	1.331136	1.294505
00:00:00.265	1.323077	1.326740	1.295238
00:00:00.265	1.318681	1.301099	1.288645
00:00:00.266	1.327473	1.305495	1.312821
00:00:00.266	1.340659	1.307692	1.311355
00:00:00.266	1.335531	1.308425	1.304762
00:00:00.298	1.326007	1.330403	1.317216
00:00:00.299	1.298901	1.324542	1.312821
00:00:00.299	1.290110	1.319414	1.320147
00:00:00.300	1.290842	1.314286	1.322344
00:00:00.300	1.304029	1.306227	1.319414
00:00:00.300	1.288645	1.291575	1.304029
00:00:00.301	1.297436	1.298901	1.306960
00:00:00.302	1.317216	1.309158	1.300366
00:00:00.302	1.316484	1.318681	1.300366
00:00:00.302	1.312088	1.315751	1.293040
00:00:00.302	1.314286	1.312821	1.295238
00:00:00.302	1.273993	1.298168	1.281319
00:00:00.303	1.316484	1.312821	1.298901
00:00:00.303	1.322344	1.312821	1.296703
00:00:00.304	1.309158	1.304029	1.300366
00:00:00.304	1.306960	1.301099	1.303297
00:00:00.305	1.285714	1.303297	1.310623
00:00:00.306	1.252015	1.309158	1.315751
00:00:00.306	1.214652	1.304762	1.323810
00:00:00.306	1.280586	1.290842	1.320879
00:00:00.306	1.332601	1.284982	1.320147
00:00:00.306	1.376557	1.294505	1.306227
00:00:00.306	1.386081	1.305495	1.312821
00:00:00.307	1.356044	1.306960	1.310623
00:00:00.307	1.354579	1.299634	1.306227
00:00:00.307	1.342125	1.295238	1.294505
00:00:00.309	1.315018	1.316484	1.293040
00:00:00.309	1.287912	1.306960	1.299634
00:00:00.309	1.287912	1.293773	1.286447
00:00:00.309	1.282784	1.297436	1.293040
00:00:00.309	1.313553	1.303297	1.297436
00:00:00.310	1.361172	1.306960	1.306960
00:00:00.310	1.384615	1.317216	1.310623
00:00:00.310	1.379487	1.321612	1.309158
00:00:00.311	1.360440	1.318681	1.315751
00:00:00.311	1.362637	1.304029	1.317216
00:00:00.311	1.344322	1.301099	1.316484
00:00:00.312	1.259341	1.307692	1.320147
00:00:00.312	1.190476	1.302564	1.302564
00:00:00.312	1.204396	1.301832	1.299634
00:00:00.313	1.273993	1.312088	1.296703
00:00:00.313	1.302564	1.318681	1.300366
00:00:00.314	1.298168	1.333333	1.304029
00:00:00.314	1.293040	1.329670	1.297436
00:00:00.314	1.321612	1.304029	1.297436
00:00:00.315	1.332601	1.305495	1.286447
00:00:00.315	1.318681	1.350183	1.304762
00:00:00.315	1.177289	1.334799	1.298901
00:00:00.316	1.225641	1.322344	1.303297
00:00:00.316	1.318681	1.324542	1.312821
00:00:00.348	1.397070	1.308425	1.307692
00:00:00.349	1.426374	1.293773	1.320879
00:00:00.349	1.449084	1.279853	1.326007
00:00:00.349	1.413919	1.281319	1.326740
00:00:00.350	1.338462	1.286447	1.323810
00:00:00.350	1.245421	1.271062	1.311355
00:00:00.350	1.232234	1.268132	1.302564
00:00:00.351	1.278388	1.306960	1.296703
00:00:00.351	1.302564	1.359707	1.293773
00:00:00.351	1.300366	1.361172	1.297436
00:00:00.352	1.317949	1.344322	1.303297
00:00:00.352	1.312088	1.326007	1.300366
00:00:00.353	1.306227	1.302564	1.285714
00:00:00.353	1.322344	1.281319	1.299634
00:00:00.354	1.320147	1.267399	1.296703
00:00:00.354	1.322344	1.276923	1.303297
00:00:00.354	1.331136	1.261538	1.308425
00:00:00.354	1.326007	1.255678	1.308425
00:00:00.355	1.341392	1.298168	1.312088
00:00:00.355	1.282784	1.309890	1.306960
00:00:00.355	1.259341	1.308425	1.314286
00:00:00.356	1.246154	1.309890	1.312821
00:00:00.356	1.280586	1.309158	1.312821
00:00:00.356	1.373626	1.302564	1.316484
00:00:00.357	1.379487	1.289377	1.289377
00:00:00.357	1.354579	1.315018	1.294505
00:00:00.358	1.317216	1.353846	1.290110
00:00:00.358	1.197802	1.448352	1.295238
00:00:00.358	1.103297	1.459341	1.304029
00:00:00.359	1.180220	1.393407	1.306227
00:00:00.359	1.306227	1.354579	1.316484
00:00:00.359	1.340659	1.261538	1.307692
00:00:00.360	1.402930	1.246154	1.318681
00:00:00.360	1.458608	1.287179	1.317216
00:00:00.360	1.494505	1.249817	1.331868
00:00:00.361	1.361905	1.230037	1.323077
00:00:00.361	1.248352	1.236630	1.313553
00:00:00.361	1.248352	1.283516	1.312821
00:00:00.362	1.296703	1.268864	1.300366
00:00:00.362	1.328205	1.236630	1.292308
00:00:00.363	1.386813	1.326007	1.290110
00:00:00.363	1.457143	1.347985	1.279853
00:00:00.363	1.422711	1.348718	1.268864
00:00:00.364	1.324542	1.412454	1.258608
00:00:00.364	1.263736	1.507692	1.291575
00:00:00.364	1.263736	1.462271	1.313553
00:00:00.365	1.252015	1.352381	1.311355
00:00:00.365	1.268864	1.238828	1.331868
00:00:00.365	1.219048	1.128938	1.295971
00:00:00.366	1.162637	1.097436	1.295238
00:00:00.398	1.049817	1.177289	1.294505
00:00:00.398	1.128938	1.264469	1.312088
00:00:00.399	1.195604	1.324542	1.339927
00:00:00.399	1.347253	1.388278	1.343590
00:00:00.399	1.327473	1.410989	1.357509
00:00:00.400	1.512088	1.363370	1.348718
00:00:00.400	1.613187	1.295971	1.309890
00:00:00.400	1.614652	1.305495	1.269597
00:00:00.402	1.605861	1.315751	1.249084
00:00:00.402	1.572894	1.494505	1.287912
00:00:00.403	1.386081	1.587546	1.303297
00:00:00.403	1.207326	1.532601	1.309158
00:00:00.403	1.214652	1.463004	1.283516
00:00:00.403	1.202198	1.333333	1.290110
00:00:00.403	1.156044	1.227106	1.312088
00:00:00.403	1.246154	1.197802	1.301832
00:00:00.406	1.255678	1.187546	1.321612
00:00:00.406	1.249817	1.115751	1.336264
00:00:00.406	1.318681	1.099634	1.338462
00:00:00.406	1.339194	1.156044	1.323077
00:00:00.406	1.233700	1.065201	1.276923
00:00:00.406	1.153114	1.167033	1.287179
00:00:00.406	1.123077	1.285714	1.298901
00:00:00.406	1.203663	1.309158	1.328938
00:00:00.407	1.143590	1.364835	1.334799
00:00:00.407	1.150916	1.512821	1.364835
00:00:00.407	1.309158	1.468864	1.347253
00:00:00.408	1.432234	1.345055	1.316484
00:00:00.408	1.491575	1.334066	1.315018
00:00:00.408	1.531868	1.337729	1.305495
00:00:00.409	1.537729	1.326007	1.312088
00:00:00.409	1.501832	1.254945	1.311355
00:00:00.409	1.377289	1.206593	1.310623
00:00:00.410	1.319414	1.239560	1.326740
00:00:00.410	1.268132	1.302564	1.306227
00:00:00.410	1.266667	1.397070	1.304762
00:00:00.411	1.268132	1.339927	1.309158
00:00:00.411	1.235897	1.338462	1.306960
00:00:00.412	1.188278	1.417582	1.302564
00:00:00.412	1.180220	1.527473	1.326007
00:00:00.412	1.227839	1.385348	1.312821
00:00:00.413	1.316484	1.174359	1.311355
00:00:00.413	1.356777	1.068132	1.306960
00:00:00.413	1.361905	1.109890	1.286447
00:00:00.414	1.329670	1.206593	1.273993
00:00:00.414	1.367766	1.324542	1.301832
00:00:00.414	1.428571	1.364835	1.308425
00:00:00.415	1.369963	1.476923	1.282784
00:00:00.415	1.283516	1.564103	1.304762
00:00:00.416	1.258608	1.430037	1.309158
00:00:00.448	1.294505	1.276923	1.315018
00:00:00.448	1.271062	1.247619	1.320879
00:00:00.448	1.195604	1.264469	1.309158
00:00:00.449	1.265934	1.265934	1.322344
00:00:00.449	1.363370	1.066667	1.309890
00:00:00.449	1.430037	1.129670	1.304029
00:00:00.450	1.441758	1.408059	1.290842
00:00:00.450	1.444689	1.447619	1.288645
00:00:00.451	1.401465	1.339194	1.306227
00:00:00.451	1.300366	1.261538	1.300366
00:00:00.451	1.276190	1.180220	1.295971
00:00:00.452	1.188278	1.248352	1.268864
00:00:00.452	1.221245	1.374359	1.280586
00:00:00.452	1.227106	1.449084	1.276923
00:00:00.453	1.326007	1.505495	1.287912
00:00:00.453	1.471062	1.365568	1.276923
00:00:00.453	1.583883	1.295238	1.299634
00:00:00.454	1.590476	1.264469	1.304029
00:00:00.454	1.480586	1.189011	1.339927
00:00:00.454	1.217582	1.155311	1.309890
00:00:00.455	1.010256	1.106960	1.310623
00:00:00.455	0.945788	1.150183	1.316484
00:00:00.456	1.117216	1.287179	1.326007
00:00:00.456	1.310623	1.366300	1.338462
00:00:00.456	1.381685	1.397802	1.342857
00:00:00.457	1.323810	1.465201	1.349451
00:00:00.457	1.260806	1.473260	1.314286
00:00:00.457	1.267399	1.430037	1.286447
00:00:00.459	1.284982	1.370696	1.298168
00:00:00.459	1.235165	1.333333	1.316484
00:00:00.459	1.253480	1.309158	1.309890
00:00:00.459	1.334799	1.307692	1.318681
00:00:00.459	1.374359	1.276190	1.298901
00:00:00.460	1.407326	1.306227	1.312821
00:00:00.460	1.446154	1.326740	1.324542
00:00:00.460	1.458608	1.336996	1.339927
00:00:00.461	1.369231	1.365568	1.308425
00:00:00.461	1.268132	1.265201	1.296703
00:00:00.461	1.263736	1.220513	1.310623
00:00:00.462	1.271062	1.251282	1.305495
00:00:00.462	1.298168	1.305495	1.300366
00:00:00.462	1.305495	1.323810	1.306227
00:00:00.464	1.308425	1.329670	1.303297
00:00:00.464	1.319414	1.296703	1.297436
00:00:00.464	1.313553	1.250549	1.287912
00:00:00.464	1.309158	1.317949	1.282784
00:00:00.464	1.306227	1.352381	1.282051
00:00:00.465	1.312088	1.364103	1.287179
00:00:00.465	1.297436	1.348718	1.290110
00:00:00.465	1.294505	1.312088	1.298168
00:00:00.497	1.290110	1.282051	1.294505
00:00:00.498	1.308425	1.280586	1.287179
00:00:00.498	1.318681	1.310623	1.317949
00:00:00.498	1.309158	1.290110	1.326740
00:00:00.499	1.303297	1.293773	1.327473
00:00:00.499	1.309158	1.326740	1.330403
00:00:00.502	1.306960	1.319414	1.319414
00:00:00.502	1.312088	1.318681	1.317949
00:00:00.502	1.320147	1.383150	1.315018
00:00:00.502	1.323810	1.316484	1.302564
00:00:00.502	1.344322	1.316484	1.300366
00:00:00.502	1.347253	1.282051	1.289377
00:00:00.502	1.311355	1.295238	1.275458
00:00:00.502	1.323810	1.303297	1.295971
00:00:00.502	1.309890	1.221245	1.286447
00:00:00.503	1.342125	1.168498	1.286447
00:00:00.503	1.256410	1.189744	1.284249
00:00:00.504	1.276190	1.265934	1.304029
00:00:00.504	1.315018	1.331136	1.309158
00:00:00.504	1.350916	1.354579	1.317949
00:00:00.505	1.391941	1.350916	1.323810
00:00:00.505	1.378022	1.325275	1.326740
00:00:00.505	1.306227	1.288645	1.326740
00:00:00.506	1.227106	1.276923	1.313553
00:00:00.506	1.232967	1.298901	1.309890
00:00:00.506	1.272527	1.270330	1.300366
00:00:00.507	1.311355	1.297436	1.303297
00:00:00.507	1.325275	1.354579	1.292308
00:00:00.507	1.333333	1.396337	1.300366
00:00:00.508	1.341392	1.375092	1.303297
00:00:00.508	1.303297	1.309158	1.282051
00:00:00.509	1.285714	1.280586	1.284249
00:00:00.509	1.308425	1.304029	1.297436
00:00:00.509	1.314286	1.310623	1.300366
00:00:00.510	1.334066	1.322344	1.319414
00:00:00.511	1.219048	1.310623	1.307692
00:00:00.511	1.276923	1.295238	1.326007
00:00:00.511	1.349451	1.284982	1.311355
00:00:00.511	1.380952	1.284982	1.309890
00:00:00.511	1.395604	1.287912	1.309158
00:00:00.512	1.366300	1.299634	1.307692
00:00:00.512	1.296703	1.314286	1.315018
00:00:00.512	1.260806	1.323810	1.309158
00:00:00.513	1.293773	1.287912	1.276923
00:00:00.513	1.381685	1.300366	1.287912
00:00:00.514	1.393407	1.325275	1.286447
00:00:00.514	1.340659	1.334066	1.297436
00:00:00.514	1.274725	1.333333	1.304029
00:00:00.515	1.327473	1.323810	1.300366
00:00:00.515	1.361172	1.334066	1.316484
00:00:00.547	1.350916	1.319414	1.317949
00:00:00.548	1.299634	1.305495	1.319414
00:00:00.548	1.260073	1.312821	1.319414
00:00:00.548	1.200000	1.297436	1.317216
00:00:00.549	1.131868	1.293773	1.315751
00:00:00.549	1.178022	1.295238	1.320147
00:00:00.549	1.282051	1.284249	1.308425
00:00:00.550	1.335531	1.284249	1.306960
00:00:00.550	1.345788	1.297436	1.304762
00:00:00.550	1.348718	1.312088	1.302564
00:00:00.551	1.303297	1.331136	1.287179
00:00:00.551	1.302564	1.296703	1.278388
00:00:00.551	1.332601	1.298901	1.281319
00:00:00.552	1.380220	1.306960	1.289377
00:00:00.552	1.394872	1.307692	1.293773
00:00:00.553	1.405128	1.319414	1.306227
00:00:00.553	1.374359	1.283516	1.297436
00:00:00.553	1.309158	1.240293	1.302564
00:00:00.554	1.253480	1.246886	1.305495
00:00:00.554	1.217582	1.275458	1.315018
00:00:00.554	1.267399	1.293040	1.320147
00:00:00.555	1.282784	1.301832	1.314286
00:00:00.555	1.247619	1.304762	1.318681
00:00:00.555	1.222711	1.311355	1.317216
00:00:00.556	1.228571	1.312821	1.310623
00:00:00.556	1.339194	1.323810	1.313553
00:00:00.556	1.416850	1.331136	1.300366
00:00:00.557	1.452015	1.345788	1.298901
00:00:00.557	1.435165	1.344322	1.294505
00:00:00.558	1.383883	1.309158	1.287179
00:00:00.558	1.318681	1.311355	1.309890
00:00:00.558	1.271795	1.312821	1.305495
00:00:00.559	1.296703	1.320147	1.307692
00:00:00.559	1.312088	1.323077	1.299634
00:00:00.559	1.294505	1.309158	1.296703
00:00:00.561	1.282784	1.312088	1.305495
00:00:00.561	1.284982	1.302564	1.297436
00:00:00.561	1.309890	1.295238	1.306960
00:00:00.561	1.319414	1.299634	1.315018
00:00:00.561	1.319414	1.304029	1.319414
00:00:00.561	1.297436	1.308425	1.299634
00:00:00.563	1.284249	1.323077	1.310623
00:00:00.563	1.253480	1.312821	1.302564
00:00:00.563	1.255678	1.302564	1.300366
00:00:00.563	1.287179	1.309158	1.300366
00:00:00.563	1.314286	1.313553	1.308425
00:00:00.566	1.261538	1.311355	1.300366
00:00:00.566	1.282784	1.303297	1.277656
00:00:00.566	1.394139	1.300366	1.304029
00:00:00.566	1.444689	1.306227	1.304762
00:00:00.598	1.419048	1.290110	1.306227
00:00:00.598	1.367033	1.297436	1.315751
00:00:00.598	1.341392	1.293040	1.309158
00:00:00.598	1.295238	1.304762	1.326740
00:00:00.598	1.246154	1.314286	1.317949
00:00:00.599	1.270330	1.326007	1.319414
00:00:00.599	1.301832	1.327473	1.320879
00:00:00.599	1.316484	1.319414	1.318681
00:00:00.600	1.284982	1.317216	1.312088
00:00:00.600	1.296703	1.309158	1.296703
00:00:00.600	1.284982	1.322344	1.298168
00:00:00.601	1.279121	1.356777	1.306960
00:00:00.601	1.287912	1.409524	1.293773
00:00:00.602	1.286447	1.419048	1.301832
00:00:00.602	1.306227	1.394139	1.301832
00:00:00.602	1.270330	1.295238	1.290110
00:00:00.603	1.312821	1.263004	1.307692
00:00:00.603	1.352381	1.263736	1.315751
00:00:00.603	1.345788	1.229304	1.309158
00:00:00.604	1.363370	1.230769	1.320147
00:00:00.604	1.367033	1.214652	1.305495
00:00:00.604	1.358242	1.237363	1.322344
00:00:00.605	1.309158	1.298168	1.317216
00:00:00.605	1.272527	1.322344	1.302564
00:00:00.605	1.263736	1.309158	1.305495
00:00:00.606	1.308425	1.293040	1.304029
00:00:00.606	1.320147	1.285714	1.294505
00:00:00.607	1.320879	1.303297	1.300366
00:00:00.607	1.323077	1.310623	1.300366
00:00:00.607	1.307692	1.284982	1.292308
00:00:00.608	1.274725	1.275458	1.287912
00:00:00.608	1.303297	1.294505	1.295238
00:00:00.608	1.305495	1.294505	1.300366
00:00:00.609	1.310623	1.298168	1.300366
00:00:00.609	1.321612	1.323810	1.314286
00:00:00.609	1.326740	1.322344	1.317216
00:00:00.610	1.323810	1.324542	1.323810
00:00:00.610	1.312088	1.331136	1.318681
00:00:00.610	1.319414	1.335531	1.318681
00:00:00.611	1.316484	1.331868	1.318681
00:00:00.611	1.314286	1.323810	1.315018
00:00:00.612	1.309158	1.336264	1.306227
00:00:00.612	1.304029	1.343590	1.299634
00:00:00.612	1.312088	1.342125	1.303297
00:00:00.613	1.298168	1.323077	1.300366
00:00:00.613	1.293040	1.316484	1.299634
00:00:00.613	1.285714	1.317949	1.285714
00:00:00.614	1.303297	1.312821	1.292308
00:00:00.614	1.327473	1.305495	1.300366
00:00:00.615	1.364835	1.306227	1.304762
00:00:00.647	1.388278	1.316484	1.307692
00:00:00.647	1.362637	1.323077	1.316484
00:00:00.647	1.297436	1.298901	1.314286
00:00:00.648	1.268864	1.271062	1.311355
00:00:00.648	1.300366	1.287912	1.323077
00:00:00.648	1.310623	1.302564	1.317949
00:00:00.649	1.326740	1.315018	1.326007
00:00:00.649	1.318681	1.309890	1.314286
00:00:00.649	1.344322	1.282051	1.308425
00:00:00.650	1.325275	1.266667	1.287912
00:00:00.650	1.317216	1.276190	1.279853
00:00:00.651	1.306227	1.308425	1.297436
00:00:00.651	1.295238	1.328205	1.294505
00:00:00.651	1.282051	1.322344	1.290842
00:00:00.652	1.281319	1.320879	1.300366
00:00:00.652	1.283516	1.306227	1.296703
00:00:00.652	1.281319	1.306227	1.305495
00:00:00.653	1.303297	1.315018	1.314286
00:00:00.653	1.313553	1.312821	1.317949
00:00:00.653	1.297436	1.305495	1.317949
00:00:00.654	1.282784	1.302564	1.309890
00:00:00.654	1.311355	1.319414	1.318681
00:00:00.654	1.306960	1.321612	1.322344
00:00:00.655	1.336996	1.312088	1.312088
00:00:00.655	1.307692	1.319414	1.300366
00:00:00.657	1.320879	1.326740	1.309158
00:00:00.657	1.335531	1.314286	1.293773
00:00:00.657	1.334066	1.339194	1.308425
00:00:00.657	1.326740	1.342125	1.294505
00:00:00.657	1.309890	1.338462	1.292308
00:00:00.657	1.319414	1.326007	1.293773
00:00:00.659	1.303297	1.284249	1.295971
00:00:00.659	1.316484	1.274725	1.301832
00:00:00.659	1.304762	1.266667	1.288645
00:00:00.659	1.312821	1.282051	1.311355
00:00:00.659	1.320879	1.277656	1.314286
00:00:00.662	1.310623	1.283516	1.304762
00:00:00.662	1.315751	1.340659	1.317216
00:00:00.662	1.323077	1.402930	1.331136
00:00:00.662	1.320147	1.332601	1.317216
00:00:00.662	1.317949	1.253480	1.309158
00:00:00.662	1.312821	1.219048	1.296703
00:00:00.662	1.316484	1.237363	1.310623
00:00:00.662	1.312088	1.264469	1.293773
00:00:00.662	1.304762	1.263004	1.286447
00:00:00.663	1.309890	1.265201	1.289377
00:00:00.663	1.289377	1.256410	1.279121
00:00:00.663	1.301099	1.328205	1.295238
00:00:00.664	1.251282	1.351648	1.297436
00:00:00.664	1.266667	1.316484	1.310623
00:00:00.696	1.246886	1.287912	1.312821
00:00:00.697	1.314286	1.269597	1.313553
00:00:00.697	1.408791	1.323077	1.321612
00:00:00.697	1.473260	1.356777	1.320147
00:00:00.698	1.476190	1.395604	1.320147
00:00:00.698	1.400733	1.375824	1.320879
00:00:00.699	1.289377	1.360440	1.317216
00:00:00.699	1.185348	1.345055	1.311355
00:00:00.699	1.186081	1.329670	1.309890
00:00:00.700	1.230037	1.312821	1.306227
00:00:00.700	1.288645	1.303297	1.309158
00:00:00.700	1.331136	1.295238	1.298168
00:00:00.701	1.372161	1.268132	1.287912
00:00:00.701	1.389011	1.268132	1.293040
00:00:00.701	1.364835	1.287179	1.295238
00:00:00.702	1.303297	1.320147	1.300366
00:00:00.702	1.241026	1.264469	1.291575
00:00:00.702	1.246886	1.250549	1.293040
00:00:00.703	1.295238	1.286447	1.309158
00:00:00.703	1.289377	1.306960	1.298901
00:00:00.704	1.317216	1.320879	1.312821
00:00:00.704	1.322344	1.317949	1.315018
00:00:00.704	1.326007	1.350916	1.326740
00:00:00.705	1.326007	1.412454	1.322344
00:00:00.705	1.322344	1.362637	1.321612
00:00:00.705	1.320879	1.328938	1.313553
00:00:00.706	1.314286	1.326740	1.298901
00:00:00.706	1.309158	1.319414	1.289377
00:00:00.706	1.315751	1.291575	1.282051
00:00:00.707	1.298168	1.237363	1.289377
00:00:00.707	1.305495	1.252015	1.293773
00:00:00.707	1.282784	1.293773	1.282051
00:00:00.708	1.296703	1.311355	1.303297
00:00:00.708	1.297436	1.273993	1.304029
00:00:00.709	1.278388	1.279853	1.306227
00:00:00.709	1.298901	1.282051	1.320879
00:00:00.709	1.289377	1.265201	1.304762
00:00:00.710	1.320879	1.287912	1.329670
00:00:00.710	1.242491	1.301099	1.323810
00:00:00.710	1.213187	1.306960	1.322344
00:00:00.711	1.317949	1.347253	1.320879
00:00:00.711	1.391209	1.386813	1.304029
00:00:00.711	1.430769	1.389744	1.309158
00:00:00.712	1.427839	1.363370	1.298901
00:00:00.712	1.353114	1.346520	1.296703
00:00:00.712	1.317949	1.343590	1.302564
00:00:00.713	1.262271	1.331868	1.297436
00:00:00.713	1.279853	1.299634	1.299634
00:00:00.714	1.300366	1.263004	1.295971
00:00:00.714	1.298168	1.257875	1.288645
00:00:00.746	1.299634	1.281319	1.296703
00:00:00.746	1.303297	1.290110	1.300366
00:00:00.747	1.312821	1.297436	1.311355
00:00:00.747	1.328205	1.355311	1.323077
00:00:00.748	1.337729	1.333333	1.328938
00:00:00.748	1.331868	1.290842	1.326740
00:00:00.748	1.317949	1.284982	1.323810
00:00:00.749	1.298168	1.265934	1.323810
00:00:00.749	1.305495	1.260073	1.320147
00:00:00.749	1.304762	1.227106	1.287912
00:00:00.750	1.314286	1.236630	1.298168
00:00:00.750	1.299634	1.301099	1.293773
00:00:00.751	1.290110	1.327473	1.284982
00:00:00.751	1.311355	1.383150	1.296703
00:00:00.751	1.315018	1.420513	1.290842
00:00:00.751	1.317949	1.368498	1.308425
00:00:00.755	1.212454	1.304029	1.305495
00:00:00.755	1.207326	1.309158	1.299634
00:00:00.755	1.301832	1.310623	1.317216
00:00:00.755	1.384615	1.355311	1.315018
00:00:00.755	1.432967	1.271795	1.316484
00:00:00.755	1.447619	1.168498	1.300366
00:00:00.755	1.386081	1.226374	1.313553
00:00:00.755	1.273993	1.224176	1.298901
00:00:00.755	1.241758	1.263004	1.306960
00:00:00.755	1.288645	1.281319	1.309890
00:00:00.755	1.370696	1.296703	1.308425
00:00:00.758	1.351648	1.342125	1.308425
00:00:00.758	1.273993	1.394139	1.302564
00:00:00.758	1.229304	1.423443	1.287179
00:00:00.758	1.271062	1.434432	1.298901
00:00:00.758	1.271795	1.410989	1.296703
00:00:00.758	1.271795	1.353114	1.291575
00:00:00.758	1.301099	1.287912	1.312088
00:00:00.758	1.298901	1.235897	1.305495
00:00:00.759	1.310623	1.207326	1.318681
00:00:00.759	1.316484	1.210989	1.315751
00:00:00.759	1.333333	1.270330	1.320147
00:00:00.760	1.356044	1.284982	1.326007
00:00:00.760	1.351648	1.286447	1.309158
00:00:00.760	1.322344	1.318681	1.319414
00:00:00.761	1.322344	1.324542	1.311355
00:00:00.761	1.300366	1.306227	1.306960
00:00:00.761	1.323810	1.310623	1.301832
00:00:00.762	1.293040	1.315751	1.285714
00:00:00.762	1.296703	1.339194	1.298901
00:00:00.763	1.298901	1.342125	1.284249
00:00:00.763	1.298901	1.346520	1.291575
00:00:00.763	1.312088	1.366300	1.298168
00:00:00.764	1.309890	1.405861	1.300366
00:00:00.796	1.301832	1.471795	1.306227
00:00:00.796	1.288645	1.369963	1.297436
00:00:00.797	1.307692	1.268132	1.315751
00:00:00.797	1.307692	1.200000	1.309158
00:00:00.797	1.304762	1.158974	1.320879
00:00:00.798	1.310623	1.185348	1.312088
00:00:00.798	1.326007	1.228571	1.331868
00:00:00.798	1.334799	1.257875	1.336996
00:00:00.799	1.336996	1.284982	1.323810
00:00:00.799	1.335531	1.326007	1.315751
00:00:00.799	1.323077	1.325275	1.294505
00:00:00.800	1.315751	1.312088	1.306227
00:00:00.800	1.311355	1.317216	1.282784
00:00:00.800	1.314286	1.342857	1.289377
00:00:00.801	1.304762	1.340659	1.286447
00:00:00.801	1.308425	1.346520	1.296703
00:00:00.802	1.307692	1.345055	1.289377
00:00:00.802	1.303297	1.326007	1.294505
00:00:00.802	1.317216	1.312821	1.309158
00:00:00.804	1.311355	1.298901	1.305495
00:00:00.804	1.293773	1.300366	1.317216
00:00:00.804	1.306960	1.308425	1.330403
00:00:00.804	1.329670	1.304029	1.323810
00:00:00.804	1.342125	1.299634	1.322344
00:00:00.804	1.331136	1.301832	1.312088
00:00:00.805	1.326740	1.311355	1.312821
00:00:00.805	1.316484	1.312088	1.302564
00:00:00.806	1.309890	1.315751	1.296703
00:00:00.806	1.305495	1.317949	1.293040
00:00:00.806	1.295971	1.314286	1.290110
00:00:00.807	1.253480	1.333333	1.297436
00:00:00.807	1.281319	1.358242	1.313553
00:00:00.807	1.317216	1.322344	1.302564
00:00:00.808	1.328205	1.276923	1.289377
00:00:00.808	1.335531	1.268132	1.304029
00:00:00.808	1.317949	1.282784	1.307692
00:00:00.809	1.305495	1.287912	1.312821
00:00:00.809	1.311355	1.298168	1.315751
00:00:00.809	1.301832	1.298168	1.319414
00:00:00.810	1.295238	1.312088	1.369963
00:00:00.810	1.286447	1.310623	1.304029
00:00:00.811	1.282051	1.314286	1.296703
00:00:00.811	1.301832	1.318681	1.350916
00:00:00.811	1.303297	1.295238	1.341392
00:00:00.812	1.317949	1.300366	1.344322
00:00:00.812	1.323810	1.301099	1.276190
00:00:00.812	1.327473	1.308425	1.200000
00:00:00.813	1.384615	1.307692	1.187546
00:00:00.813	1.362637	1.305495	1.230037
00:00:00.813	1.290842	1.304029	1.259341
00:00:00.846	1.230037	1.314286	1.278388
00:00:00.846	1.229304	1.320147	1.332601
00:00:00.846	1.312821	1.315018	1.326007
00:00:00.850	1.384615	1.312821	1.370696
00:00:00.850	1.337729	1.295238	1.337729
00:00:00.850	1.361172	1.303297	1.326007
00:00:00.850	1.343590	1.290110	1.315018
00:00:00.850	1.311355	1.298168	1.340659
00:00:00.850	1.294505	1.301099	1.314286
00:00:00.850	1.356777	1.307692	1.306227
00:00:00.850	1.356777	1.311355	1.304029
00:00:00.850	1.328205	1.311355	1.303297
00:00:00.850	1.293773	1.317216	1.288645
00:00:00.850	1.247619	1.317216	1.286447
00:00:00.853	1.253480	1.309158	1.286447
00:00:00.853	1.301832	1.322344	1.307692
00:00:00.853	1.297436	1.319414	1.308425
00:00:00.853	1.294505	1.318681	1.310623
00:00:00.853	1.273260	1.312088	1.306960
00:00:00.853	1.323077	1.306960	1.306960
00:00:00.853	1.308425	1.300366	1.310623
00:00:00.853	1.309890	1.297436	1.318681
00:00:00.853	1.295238	1.280586	1.320147
00:00:00.854	1.369231	1.276923	1.331868
00:00:00.854	1.422711	1.273993	1.318681
00:00:00.855	1.357509	1.280586	1.322344
00:00:00.856	1.287179	1.298168	1.311355
00:00:00.856	1.209524	1.312821	1.306227
00:00:00.856	1.234432	1.323077	1.317216
00:00:00.856	1.238828	1.322344	1.302564
00:00:00.856	1.331868	1.342857	1.287912
00:00:00.857	1.288645	1.363370	1.273260
00:00:00.857	1.465934	1.334799	1.275458
00:00:00.857	1.336996	1.301832	1.276190
00:00:00.858	1.268864	1.292308	1.279853
00:00:00.858	1.247619	1.309158	1.369231
00:00:00.858	1.296703	1.323077	1.355311
00:00:00.859	1.321612	1.299634	1.323077
00:00:00.859	1.287179	1.293040	1.326007
00:00:00.860	1.315751	1.281319	1.270330
00:00:00.860	1.468864	1.311355	1.282051
00:00:00.860	1.423443	1.312088	1.311355
00:00:00.861	1.376557	1.317949	1.347253
00:00:00.861	1.429304	1.286447	1.359707
00:00:00.861	1.328938	1.279853	1.315018
00:00:00.862	1.253480	1.285714	1.275458
00:00:00.862	1.279853	1.294505	1.289377
00:00:00.862	1.301099	1.301099	1.291575
00:00:00.863	1.232234	1.300366	1.284982
00:00:00.863	1.257143	1.288645	1.282784
