timestamp	ch1	ch2	ch3
00:00:00.000	1.303297	1.284249	1.315751
00:00:00.000	1.310623	1.293773	1.316484
00:00:00.001	1.296703	1.290842	1.311355
00:00:00.001	1.311355	1.308425	1.306960
00:00:00.001	1.306227	1.317949	1.300366
00:00:00.002	1.312088	1.326007	1.298901
00:00:00.002	1.313553	1.331868	1.304029
00:00:00.003	1.315018	1.334799	1.295238
00:00:00.003	1.316484	1.337729	1.296703
00:00:00.003	1.316484	1.327473	1.299634
00:00:00.004	1.298901	1.311355	1.290842
00:00:00.004	1.303297	1.304762	1.294505
00:00:00.004	1.312088	1.298168	1.301832
00:00:00.005	1.317216	1.300366	1.304762
00:00:00.005	1.318681	1.306227	1.309890
00:00:00.005	1.306960	1.293773	1.302564
00:00:00.006	1.315018	1.302564	1.321612
00:00:00.006	1.312088	1.303297	1.315751
00:00:00.006	1.300366	1.293040	1.315751
00:00:00.007	1.304029	1.293773	1.311355
00:00:00.007	1.299634	1.282784	1.302564
00:00:00.008	1.299634	1.288645	1.306227
00:00:00.008	1.310623	1.308425	1.300366
00:00:00.040	1.316484	1.312088	1.298901
00:00:00.040	1.308425	1.313553	1.282784
00:00:00.041	1.309158	1.332601	1.296703
00:00:00.041	1.307692	1.367033	1.295238
00:00:00.042	1.307692	1.367766	1.294505
00:00:00.042	1.309890	1.338462	1.300366
00:00:00.042	1.308425	1.312088	1.307692
00:00:00.043	1.311355	1.278388	1.304029
00:00:00.043	1.296703	1.241026	1.302564
00:00:00.043	1.310623	1.254945	1.317216
00:00:00.044	1.311355	1.246154	1.322344
00:00:00.044	1.307692	1.234432	1.316484
00:00:00.044	1.309158	1.253480	1.311355
00:00:00.045	1.303297	1.273993	1.298168
00:00:00.045	1.311355	1.306960	1.309890
00:00:00.045	1.306960	1.331868	1.303297
00:00:00.046	1.309158	1.342857	1.287912
00:00:00.046	1.315018	1.354579	1.298168
00:00:00.047	1.310623	1.340659	1.295971
00:00:00.047	1.306227	1.326740	1.291575
00:00:00.047	1.314286	1.328205	1.299634
00:00:00.048	1.309158	1.330403	1.287179
00:00:00.048	1.317216	1.354579	1.304029
00:00:00.048	1.317216	1.353846	1.308425
00:00:00.049	1.300366	1.312821	1.297436
00:00:00.049	1.316484	1.307692	1.316484
00:00:00.049	1.309890	1.277656	1.315751
00:00:00.050	1.311355	1.254945	1.312088
00:00:00.051	1.315751	1.258608	1.320147
00:00:00.051	1.314286	1.262271	1.312821
00:00:00.051	1.306960	1.252015	1.315751
00:00:00.051	1.309890	1.263736	1.308425
00:00:00.053	1.307692	1.273993	1.283516
00:00:00.053	1.302564	1.299634	1.287912
00:00:00.053	1.312088	1.333333	1.295238
00:00:00.053	1.309158	1.350916	1.282784
00:00:00.053	1.315018	1.362637	1.296703
00:00:00.053	1.312088	1.336264	1.294505
00:00:00.055	1.317216	1.323810	1.299634
00:00:00.055	1.314286	1.317216	1.301832
00:00:00.055	1.308425	1.285714	1.293773
00:00:00.055	1.309890	1.296703	1.310623
00:00:00.055	1.306960	1.292308	1.313553
00:00:00.055	1.306227	1.298168	1.314286
00:00:00.057	1.312088	1.306227	1.317949
00:00:00.057	1.308425	1.306227	1.312821
00:00:00.057	1.309890	1.302564	1.309158
00:00:00.057	1.305495	1.287179	1.295971
00:00:00.057	1.306227	1.296703	1.302564
00:00:00.060	1.307692	1.304762	1.295238
00:00:00.090	1.310623	1.314286	1.295238
00:00:00.090	1.311355	1.325275	1.290110
00:00:00.091	1.313553	1.329670	1.298168
00:00:00.091	1.307692	1.320879	1.295238
00:00:00.091	1.323810	1.320879	1.299634
00:00:00.092	1.320147	1.318681	1.295971
00:00:00.092	1.315018	1.306960	1.295971
00:00:00.092	1.302564	1.298168	1.304762
00:00:00.093	1.309158	1.295238	1.317216
00:00:00.093	1.309158	1.294505	1.312088
00:00:00.093	1.309890	1.290110	1.311355
00:00:00.094	1.312088	1.303297	1.316484
00:00:00.094	1.305495	1.282784	1.306227
00:00:00.094	1.315751	1.298901	1.319414
00:00:00.095	1.310623	1.292308	1.310623
00:00:00.095	1.300366	1.292308	1.300366
00:00:00.096	1.312088	1.307692	1.291575
00:00:00.096	1.310623	1.309158	1.293773
00:00:00.096	1.311355	1.320879	1.295238
00:00:00.097	1.320147	1.331136	1.299634
00:00:00.097	1.309158	1.327473	1.288645
00:00:00.097	1.315751	1.331868	1.294505
00:00:00.098	1.308425	1.320879	1.302564
00:00:00.098	1.303297	1.310623	1.301832
00:00:00.098	1.306227	1.304762	1.310623
00:00:00.099	1.313553	1.301832	1.312088
00:00:00.099	1.314286	1.295238	1.313553
00:00:00.099	1.303297	1.289377	1.306960
00:00:00.100	1.306227	1.292308	1.311355
00:00:00.100	1.304029	1.271795	1.299634
00:00:00.101	1.304762	1.252747	1.313553
00:00:00.101	1.315751	1.240293	1.312088
00:00:00.101	1.303297	1.274725	1.296703
00:00:00.102	1.315751	1.312821	1.300366
00:00:00.102	1.310623	1.328205	1.295238
00:00:00.103	1.307692	1.336264	1.295238
00:00:00.103	1.307692	1.345055	1.290110
00:00:00.103	1.307692	1.345055	1.295238
00:00:00.103	1.309158	1.347253	1.290842
00:00:00.104	1.306227	1.334066	1.291575
00:00:00.104	1.309158	1.318681	1.306960
00:00:00.104	1.299634	1.306227	1.306227
00:00:00.105	1.309158	1.317949	1.312088
00:00:00.105	1.315751	1.301099	1.318681
00:00:00.106	1.296703	1.278388	1.312821
00:00:00.106	1.306960	1.271062	1.315018
00:00:00.106	1.304029	1.268864	1.308425
00:00:00.107	1.309158	1.297436	1.309890
00:00:00.107	1.309158	1.313553	1.309890
00:00:00.107	1.303297	1.304762	1.290842
00:00:00.140	1.309158	1.309158	1.292308
00:00:00.140	1.309158	1.308425	1.298168
00:00:00.140	1.314286	1.310623	1.293040
00:00:00.141	1.320147	1.309158	1.293773
00:00:00.141	1.318681	1.320147	1.298901
00:00:00.141	1.307692	1.313553	1.296703
00:00:00.142	1.316484	1.336264	1.306227
00:00:00.142	1.316484	1.353846	1.302564
00:00:00.142	1.306227	1.331136	1.309890
00:00:00.143	1.313553	1.307692	1.315018
00:00:00.143	1.307692	1.281319	1.304762
00:00:00.143	1.299634	1.263004	1.322344
00:00:00.144	1.309158	1.263736	1.315751
00:00:00.144	1.305495	1.246886	1.312088
00:00:00.145	1.309158	1.253480	1.306960
00:00:00.145	1.315018	1.271062	1.316484
00:00:00.145	1.306227	1.276190	1.295971
00:00:00.146	1.315751	1.307692	1.302564
00:00:00.146	1.309158	1.323810	1.298901
00:00:00.146	1.314286	1.336264	1.294505
00:00:00.147	1.310623	1.324542	1.293040
00:00:00.147	1.310623	1.331136	1.300366
00:00:00.147	1.316484	1.328205	1.300366
00:00:00.149	1.313553	1.325275	1.304029
00:00:00.149	1.309158	1.327473	1.309890
00:00:00.149	1.312821	1.326740	1.313553
00:00:00.149	1.304029	1.308425	1.305495
00:00:00.149	1.310623	1.301832	1.318681
00:00:00.150	1.304762	1.292308	1.313553
00:00:00.153	1.298901	1.291575	1.304029
00:00:00.153	1.306227	1.323077	1.315751
00:00:00.153	1.314286	1.331136	1.309890
00:00:00.153	1.310623	1.323077	1.302564
00:00:00.153	1.306960	1.318681	1.298168
00:00:00.153	1.320879	1.326007	1.295238
00:00:00.153	1.309158	1.301099	1.280586
00:00:00.153	1.321612	1.306960	1.294505
00:00:00.153	1.317949	1.301832	1.293040
00:00:00.153	1.312821	1.280586	1.293773
00:00:00.153	1.312088	1.309158	1.300366
00:00:00.154	1.306227	1.326007	1.303297
00:00:00.154	1.306227	1.327473	1.308425
00:00:00.157	1.307692	1.314286	1.309158
00:00:00.157	1.306227	1.306960	1.312821
00:00:00.157	1.304762	1.274725	1.315018
00:00:00.157	1.303297	1.262271	1.309158
00:00:00.157	1.303297	1.265934	1.318681
00:00:00.157	1.312821	1.264469	1.315018
00:00:00.157	1.306227	1.254945	1.299634
00:00:00.157	1.307692	1.257875	1.300366
00:00:00.189	1.315018	1.268864	1.296703
00:00:00.190	1.309158	1.290110	1.294505
00:00:00.190	1.309158	1.309158	1.289377
00:00:00.190	1.306960	1.330403	1.295238
00:00:00.191	1.298168	1.334066	1.288645
00:00:00.191	1.313553	1.378755	1.300366
00:00:00.191	1.313553	1.368498	1.297436
00:00:00.192	1.312821	1.336996	1.302564
00:00:00.192	1.315018	1.318681	1.314286
00:00:00.192	1.309890	1.306960	1.310623
00:00:00.193	1.313553	1.307692	1.323810
00:00:00.193	1.305495	1.289377	1.321612
00:00:00.194	1.301832	1.284982	1.309158
00:00:00.194	1.311355	1.298168	1.317949
00:00:00.194	1.311355	1.306960	1.311355
00:00:00.195	1.303297	1.299634	1.306227
00:00:00.195	1.312088	1.315751	1.306227
00:00:00.195	1.310623	1.316484	1.298168
00:00:00.196	1.309890	1.314286	1.293040
00:00:00.196	1.318681	1.326740	1.298168
00:00:00.196	1.312821	1.325275	1.290842
00:00:00.197	1.314286	1.316484	1.299634
00:00:00.197	1.319414	1.318681	1.300366
00:00:00.197	1.306960	1.298901	1.293773
00:00:00.198	1.304762	1.301832	1.304029
00:00:00.198	1.313553	1.297436	1.307692
00:00:00.199	1.309890	1.286447	1.317216
00:00:00.199	1.307692	1.286447	1.323077
00:00:00.199	1.309158	1.285714	1.313553
00:00:00.200	1.311355	1.294505	1.313553
00:00:00.200	1.303297	1.288645	1.302564
00:00:00.200	1.310623	1.300366	1.309158
00:00:00.201	1.312088	1.313553	1.300366
00:00:00.201	1.296703	1.315751	1.305495
00:00:00.201	1.311355	1.323810	1.306227
00:00:00.202	1.310623	1.324542	1.293040
00:00:00.202	1.301099	1.315018	1.292308
00:00:00.202	1.312088	1.320147	1.291575
00:00:00.203	1.309158	1.312088	1.290842
00:00:00.203	1.302564	1.301832	1.290110
00:00:00.204	1.309158	1.293773	1.307692
00:00:00.204	1.311355	1.279853	1.304029
00:00:00.204	1.313553	1.269597	1.315751
00:00:00.205	1.313553	1.279853	1.314286
00:00:00.205	1.304029	1.293040	1.317949
00:00:00.205	1.316484	1.309890	1.321612
00:00:00.206	1.311355	1.326740	1.317216
00:00:00.206	1.300366	1.318681	1.315751
00:00:00.206	1.313553	1.328205	1.309890
00:00:00.207	1.308425	1.335531	1.300366
00:00:00.239	1.307692	1.309890	1.293773
00:00:00.239	1.315018	1.295971	1.298901
00:00:00.240	1.320147	1.287179	1.300366
00:00:00.240	1.313553	1.261538	1.295238
00:00:00.240	1.318681	1.304762	1.299634
00:00:00.241	1.312088	1.310623	1.293773
00:00:00.241	1.304762	1.296703	1.299634
00:00:00.241	1.306227	1.284982	1.299634
00:00:00.242	1.311355	1.286447	1.306960
00:00:00.242	1.320879	1.300366	1.308425
00:00:00.243	1.307692	1.309890	1.295238
00:00:00.243	1.303297	1.323810	1.310623
00:00:00.243	1.305495	1.332601	1.312088
00:00:00.244	1.293040	1.326007	1.312088
00:00:00.244	1.312088	1.326007	1.312088
00:00:00.244	1.311355	1.306227	1.309890
00:00:00.246	1.315018	1.309890	1.315018
00:00:00.246	1.313553	1.309158	1.296703
00:00:00.246	1.303297	1.297436	1.289377
00:00:00.247	1.312088	1.308425	1.297436
00:00:00.247	1.315751	1.310623	1.293773
00:00:00.247	1.302564	1.307692	1.293040
00:00:00.248	1.304762	1.305495	1.296703
00:00:00.248	1.312088	1.309158	1.295971
00:00:00.248	1.306227	1.304762	1.298168
00:00:00.248	1.321612	1.312821	1.309890
00:00:00.248	1.317216	1.309890	1.312821
00:00:00.251	1.312821	1.301099	1.313553
00:00:00.251	1.308425	1.294505	1.304762
00:00:00.251	1.308425	1.304029	1.320879
00:00:00.251	1.304029	1.293773	1.310623
00:00:00.251	1.303297	1.307692	1.316484
00:00:00.251	1.295971	1.293773	1.304762
00:00:00.251	1.306227	1.287912	1.295238
00:00:00.251	1.309890	1.294505	1.300366
00:00:00.251	1.316484	1.313553	1.298901
00:00:00.252	1.309890	1.318681	1.288645
00:00:00.252	1.300366	1.311355	1.282051
00:00:00.253	1.306227	1.311355	1.290842
00:00:00.253	1.323810	1.312088	1.299634
00:00:00.253	1.316484	1.308425	1.299634
00:00:00.254	1.315018	1.329670	1.302564
00:00:00.254	1.305495	1.323810	1.309890
00:00:00.254	1.309158	1.302564	1.312821
00:00:00.255	1.308425	1.290110	1.314286
00:00:00.255	1.306960	1.291575	1.316484
00:00:00.255	1.310623	1.290110	1.315018
00:00:00.256	1.306227	1.282051	1.320147
00:00:00.256	1.309158	1.291575	1.315018
00:00:00.256	1.309158	1.301832	1.312088
00:00:00.289	1.309158	1.295238	1.293773
00:00:00.289	1.314286	1.293773	1.300366
00:00:00.289	1.321612	1.326740	1.300366
00:00:00.290	1.315751	1.340659	1.290842
00:00:00.290	1.310623	1.351648	1.279121
00:00:00.290	1.315018	1.358242	1.298168
00:00:00.291	1.311355	1.323810	1.291575
00:00:00.291	1.312088	1.315751	1.302564
00:00:00.292	1.312088	1.291575	1.309158
00:00:00.292	1.302564	1.263004	1.304029
00:00:00.292	1.304762	1.270330	1.317949
00:00:00.293	1.295238	1.281319	1.317216
00:00:00.293	1.291575	1.287179	1.318681
00:00:00.293	1.309158	1.294505	1.317949
00:00:00.294	1.310623	1.278388	1.304762
00:00:00.294	1.319414	1.271062	1.296703
00:00:00.294	1.333333	1.295238	1.308425
00:00:00.295	1.317216	1.295971	1.299634
00:00:00.295	1.312088	1.306227	1.296703
00:00:00.295	1.312821	1.320879	1.291575
00:00:00.296	1.317216	1.329670	1.291575
00:00:00.296	1.312088	1.320147	1.300366
00:00:00.297	1.302564	1.319414	1.294505
00:00:00.297	1.306227	1.314286	1.304762
00:00:00.297	1.306960	1.304762	1.300366
00:00:00.298	1.300366	1.281319	1.296703
00:00:00.298	1.312821	1.271062	1.293040
00:00:00.298	1.318681	1.290110	1.316484
00:00:00.299	1.329670	1.292308	1.321612
00:00:00.299	1.336264	1.296703	1.305495
00:00:00.299	1.315751	1.320147	1.314286
00:00:00.300	1.285714	1.300366	1.302564
00:00:00.300	1.300366	1.302564	1.306227
00:00:00.300	1.287912	1.304029	1.300366
00:00:00.301	1.292308	1.338462	1.290842
00:00:00.301	1.305495	1.390476	1.287179
00:00:00.302	1.309158	1.360440	1.275458
00:00:00.302	1.316484	1.346520	1.297436
00:00:00.302	1.328205	1.323077	1.300366
00:00:00.303	1.320147	1.304762	1.299634
00:00:00.303	1.304762	1.280586	1.295238
00:00:00.303	1.306960	1.276190	1.303297
00:00:00.304	1.302564	1.273260	1.300366
00:00:00.304	1.294505	1.284249	1.284982
00:00:00.304	1.306227	1.310623	1.299634
00:00:00.305	1.317216	1.297436	1.326740
00:00:00.305	1.327473	1.295238	1.323077
00:00:00.305	1.298901	1.295238	1.300366
00:00:00.306	1.290110	1.293040	1.287179
00:00:00.306	1.293773	1.284249	1.300366
00:00:00.338	1.320147	1.304029	1.313553
00:00:00.339	1.317949	1.298168	1.300366
00:00:00.339	1.315751	1.289377	1.314286
00:00:00.339	1.320879	1.321612	1.308425
00:00:00.340	1.311355	1.328205	1.290842
00:00:00.340	1.301832	1.308425	1.280586
00:00:00.341	1.302564	1.317216	1.291575
00:00:00.344	1.312821	1.274725	1.284982
00:00:00.344	1.314286	1.288645	1.307692
00:00:00.344	1.305495	1.289377	1.303297
00:00:00.344	1.306227	1.287912	1.312821
00:00:00.344	1.306960	1.296703	1.314286
00:00:00.344	1.305495	1.305495	1.319414
00:00:00.344	1.301832	1.284249	1.312821
00:00:00.344	1.305495	1.294505	1.309158
00:00:00.344	1.314286	1.306960	1.305495
00:00:00.344	1.313553	1.312088	1.309158
00:00:00.344	1.310623	1.323810	1.307692
00:00:00.347	1.309158	1.314286	1.300366
00:00:00.347	1.309890	1.307692	1.291575
00:00:00.347	1.290842	1.300366	1.287179
00:00:00.347	1.305495	1.322344	1.295238
00:00:00.347	1.307692	1.321612	1.289377
00:00:00.347	1.303297	1.314286	1.289377
00:00:00.347	1.316484	1.312821	1.297436
00:00:00.347	1.324542	1.307692	1.299634
00:00:00.348	1.322344	1.302564	1.295238
00:00:00.349	1.321612	1.298168	1.312088
00:00:00.349	1.316484	1.274725	1.315751
00:00:00.349	1.309158	1.263736	1.318681
00:00:00.349	1.320879	1.276923	1.320147
00:00:00.349	1.318681	1.311355	1.315018
00:00:00.350	1.314286	1.332601	1.304762
00:00:00.350	1.309890	1.358242	1.300366
00:00:00.351	1.259341	1.369231	1.303297
00:00:00.351	1.282051	1.358242	1.296703
00:00:00.351	1.306227	1.329670	1.287179
00:00:00.352	1.297436	1.300366	1.295238
00:00:00.352	1.321612	1.290110	1.306227
00:00:00.352	1.342125	1.301832	1.302564
00:00:00.353	1.322344	1.302564	1.300366
00:00:00.353	1.306227	1.275458	1.289377
00:00:00.353	1.303297	1.273260	1.293773
00:00:00.354	1.306227	1.290110	1.311355
00:00:00.354	1.304762	1.290842	1.307692
00:00:00.354	1.298901	1.275458	1.309158
00:00:00.355	1.312821	1.290842	1.313553
00:00:00.355	1.317216	1.289377	1.314286
00:00:00.356	1.298901	1.274725	1.302564
00:00:00.356	1.312821	1.293040	1.310623
00:00:00.388	1.313553	1.306960	1.306960
00:00:00.388	1.306227	1.319414	1.301832
00:00:00.389	1.301832	1.300366	1.293773
00:00:00.389	1.312088	1.317949	1.294505
00:00:00.390	1.323810	1.339927	1.290110
00:00:00.390	1.316484	1.340659	1.295238
00:00:00.390	1.305495	1.327473	1.289377
00:00:00.391	1.318681	1.321612	1.296703
00:00:00.391	1.326007	1.312821	1.293773
00:00:00.391	1.306960	1.295971	1.294505
00:00:00.392	1.318681	1.289377	1.306960
00:00:00.392	1.300366	1.277656	1.306960
00:00:00.392	1.279121	1.257875	1.312088
00:00:00.393	1.300366	1.266667	1.323810
00:00:00.393	1.300366	1.263004	1.318681
00:00:00.393	1.291575	1.264469	1.316484
00:00:00.394	1.305495	1.279121	1.313553
00:00:00.394	1.310623	1.287912	1.298901
00:00:00.395	1.296703	1.309158	1.293773
00:00:00.396	1.318681	1.325275	1.298168
00:00:00.396	1.324542	1.323077	1.289377
00:00:00.396	1.320147	1.329670	1.296703
00:00:00.396	1.318681	1.327473	1.297436
00:00:00.396	1.300366	1.308425	1.274725
00:00:00.397	1.297436	1.310623	1.294505
00:00:00.397	1.302564	1.312088	1.317216
00:00:00.397	1.301832	1.296703	1.307692
00:00:00.398	1.330403	1.298168	1.319414
00:00:00.398	1.325275	1.293040	1.312821
00:00:00.398	1.305495	1.298168	1.304762
00:00:00.399	1.306227	1.300366	1.315018
00:00:00.399	1.320147	1.291575	1.311355
00:00:00.400	1.312088	1.298168	1.306960
00:00:00.400	1.320147	1.298901	1.306227
00:00:00.400	1.209524	1.301832	1.295238
00:00:00.401	1.193407	1.316484	1.286447
00:00:00.401	1.287912	1.328205	1.295971
00:00:00.401	1.378755	1.323810	1.286447
00:00:00.402	1.442491	1.304762	1.285714
00:00:00.402	1.417582	1.304762	1.298168
00:00:00.402	1.405861	1.299634	1.287179
00:00:00.403	1.395604	1.296703	1.300366
00:00:00.403	1.319414	1.296703	1.308425
00:00:00.403	1.237363	1.303297	1.336996
00:00:00.404	1.247619	1.306227	1.316484
00:00:00.404	1.223443	1.309158	1.309158
00:00:00.406	1.219780	1.297436	1.334066
00:00:00.406	1.308425	1.278388	1.316484
00:00:00.406	1.364103	1.288645	1.312088
00:00:00.406	1.312821	1.284982	1.296703
00:00:00.438	1.284249	1.300366	1.290842
00:00:00.438	1.271062	1.334799	1.290110
00:00:00.438	1.259341	1.354579	1.320879
00:00:00.440	1.215385	1.335531	1.327473
00:00:00.440	1.238828	1.301832	1.300366
00:00:00.440	1.372161	1.303297	1.292308
00:00:00.440	1.449084	1.311355	1.302564
00:00:00.440	1.512821	1.337729	1.295971
00:00:00.443	1.528205	1.349451	1.300366
00:00:00.443	1.428571	1.322344	1.322344
00:00:00.443	1.312088	1.271795	1.308425
00:00:00.443	1.203663	1.275458	1.298168
00:00:00.443	1.119414	1.306960	1.312088
00:00:00.443	1.152381	1.301832	1.299634
00:00:00.443	1.220513	1.310623	1.298901
00:00:00.443	1.285714	1.318681	1.309158
00:00:00.443	1.335531	1.312088	1.309158
00:00:00.444	1.317949	1.312821	1.309158
00:00:00.444	1.300366	1.331136	1.305495
00:00:00.445	1.292308	1.326007	1.287179
00:00:00.445	1.319414	1.336264	1.297436
00:00:00.445	1.399267	1.405128	1.300366
00:00:00.446	1.416117	1.428571	1.300366
00:00:00.446	1.402198	1.358974	1.293773
00:00:00.446	1.268864	1.315751	1.294505
00:00:00.447	1.223443	1.272527	1.298168
00:00:00.448	1.212454	1.232234	1.282051
00:00:00.448	1.273260	1.183150	1.257143
00:00:00.448	1.400000	1.175092	1.275458
00:00:00.448	1.418315	1.162637	1.299634
00:00:00.449	1.346520	1.183150	1.364103
00:00:00.449	1.262271	1.246886	1.347253
00:00:00.449	1.142125	1.335531	1.343590
00:00:00.450	1.235897	1.397802	1.309890
00:00:00.450	1.349451	1.381685	1.305495
00:00:00.450	1.397070	1.372894	1.335531
00:00:00.451	1.431502	1.423443	1.333333
00:00:00.451	1.437363	1.372894	1.304029
00:00:00.451	1.371429	1.392674	1.293040
00:00:00.452	1.315751	1.472527	1.304029
00:00:00.452	1.297436	1.308425	1.305495
00:00:00.452	1.271062	1.123077	1.296703
00:00:00.453	1.285714	1.172161	1.302564
00:00:00.453	1.241026	1.285714	1.317949
00:00:00.454	1.243956	1.378022	1.320147
00:00:00.454	1.252747	1.449817	1.334066
00:00:00.454	1.249084	1.322344	1.304762
00:00:00.455	1.219780	1.158242	1.291575
00:00:00.455	1.221245	1.378022	1.265201
00:00:00.455	1.367033	1.574359	1.300366
00:00:00.487	1.473260	1.361172	1.295238
00:00:00.488	1.477656	1.112088	1.315018
00:00:00.488	1.385348	1.031502	1.295971
00:00:00.489	1.221245	1.030037	1.268864
00:00:00.489	1.141392	1.178755	1.280586
00:00:00.489	1.150916	1.179487	1.276923
00:00:00.490	1.282784	1.167033	1.276923
00:00:00.490	1.336996	1.106227	1.288645
00:00:00.490	1.349451	1.209524	1.297436
00:00:00.491	1.325275	1.495971	1.313553
00:00:00.491	1.312088	1.579487	1.333333
00:00:00.491	1.307692	1.450549	1.312088
00:00:00.492	1.314286	1.362637	1.304029
00:00:00.492	1.273993	1.333333	1.315018
00:00:00.492	1.361172	1.339927	1.320147
00:00:00.493	1.470330	1.323810	1.309890
00:00:00.493	1.454945	1.218315	1.301832
00:00:00.494	1.439560	1.120147	1.297436
00:00:00.494	1.464469	1.213919	1.300366
00:00:00.494	1.419780	1.327473	1.291575
00:00:00.495	1.365568	1.336996	1.295238
00:00:00.495	1.324542	1.354579	1.297436
00:00:00.495	1.295971	1.555311	1.309158
00:00:00.496	1.172894	1.603663	1.316484
00:00:00.496	1.022711	1.604396	1.306227
00:00:00.496	1.026374	1.431502	1.283516
00:00:00.497	1.098901	1.305495	1.307692
00:00:00.497	1.324542	1.276190	1.345788
00:00:00.497	1.511355	1.338462	1.327473
00:00:00.498	1.451282	1.293773	1.323077
00:00:00.498	1.251282	1.232967	1.304029
00:00:00.499	1.230037	1.223443	1.287179
00:00:00.499	1.267399	1.127473	1.267399
00:00:00.500	1.350916	1.194139	1.272527
00:00:00.500	1.449084	1.324542	1.280586
00:00:00.500	1.316484	1.350916	1.275458
00:00:00.500	1.282784	1.364835	1.276190
00:00:00.502	1.124542	1.552381	1.288645
00:00:00.502	1.100366	1.559707	1.265934
00:00:00.502	1.199267	1.412454	1.235165
00:00:00.503	1.432967	1.300366	1.282051
00:00:00.503	1.514286	1.291575	1.313553
00:00:00.503	1.506227	1.304762	1.348718
00:00:00.503	1.305495	1.533333	1.401465
00:00:00.503	1.182418	1.346520	1.410256
00:00:00.505	1.168498	0.987546	1.339927
00:00:00.505	1.296703	0.875458	1.345788
00:00:00.505	1.479121	0.978755	1.369963
00:00:00.505	1.604396	1.268864	1.394139
00:00:00.505	1.530403	1.556044	1.400000
00:00:00.537	1.408791	1.558242	1.387546
00:00:00.539	1.308425	1.447619	1.368498
00:00:00.539	1.224176	1.362637	1.358974
00:00:00.539	1.180952	1.167766	1.331136
00:00:00.539	1.221245	0.980952	1.314286
00:00:00.539	1.194872	0.967766	1.281319
00:00:00.539	1.216117	1.049817	1.259341
00:00:00.540	1.250549	1.056410	1.280586
00:00:00.541	1.296703	1.166300	1.282784
00:00:00.541	1.296703	1.268864	1.284982
00:00:00.541	1.326740	1.378755	1.304029
00:00:00.541	1.361172	1.516484	1.326740
00:00:00.541	1.368498	1.552381	1.312821
00:00:00.542	1.349451	1.428571	1.290842
00:00:00.542	1.334066	1.365568	1.284982
00:00:00.543	1.322344	1.402198	1.295971
00:00:00.543	1.323077	1.424176	1.305495
00:00:00.543	1.322344	1.401465	1.290842
00:00:00.544	1.318681	1.390476	1.268864
00:00:00.544	1.333333	1.385348	1.292308
00:00:00.544	1.323810	1.342125	1.291575
00:00:00.545	1.308425	1.330403	1.287179
00:00:00.545	1.310623	1.302564	1.287179
00:00:00.545	1.309158	1.257875	1.276923
00:00:00.546	1.290110	1.274725	1.268132
00:00:00.546	1.306960	1.293773	1.282051
00:00:00.546	1.310623	1.289377	1.298168
00:00:00.547	1.306227	1.312088	1.298901
00:00:00.547	1.317949	1.335531	1.309890
00:00:00.548	1.311355	1.327473	1.307692
00:00:00.548	1.299634	1.340659	1.300366
00:00:00.548	1.305495	1.360440	1.309158
00:00:00.549	1.317949	1.409524	1.310623
00:00:00.549	1.299634	1.463736	1.307692
00:00:00.549	1.304029	1.387546	1.312821
00:00:00.550	1.310623	1.267399	1.306227
00:00:00.550	1.230037	1.219780	1.304762
00:00:00.550	1.257875	1.222711	1.296703
00:00:00.551	1.326740	1.219048	1.286447
00:00:00.551	1.389744	1.252747	1.287912
00:00:00.552	1.408059	1.281319	1.281319
00:00:00.552	1.372894	1.341392	1.276923
00:00:00.552	1.291575	1.368498	1.298901
00:00:00.553	1.253480	1.348718	1.300366
00:00:00.553	1.264469	1.276923	1.298168
00:00:00.553	1.298168	1.260073	1.306227
00:00:00.554	1.318681	1.236630	1.310623
00:00:00.554	1.308425	1.244689	1.306960
00:00:00.554	1.310623	1.291575	1.300366
00:00:00.555	1.304029	1.304029	1.304029
00:00:00.587	1.299634	1.293040	1.292308
00:00:00.587	1.306227	1.337729	1.306960
00:00:00.588	1.329670	1.368498	1.308425
00:00:00.588	1.327473	1.360440	1.293773
00:00:00.588	1.312088	1.353846	1.306960
00:00:00.589	1.307692	1.337729	1.298901
00:00:00.589	1.315018	1.361172	1.290110
00:00:00.589	1.331136	1.383883	1.309158
00:00:00.590	1.317949	1.340659	1.305495
00:00:00.590	1.282051	1.275458	1.295971
00:00:00.590	1.284249	1.252015	1.309158
00:00:00.591	1.288645	1.257875	1.304762
00:00:00.591	1.297436	1.272527	1.309158
00:00:00.592	1.315751	1.282784	1.320879
00:00:00.592	1.315751	1.295238	1.314286
00:00:00.592	1.320147	1.303297	1.305495
00:00:00.593	1.323077	1.314286	1.312088
00:00:00.593	1.324542	1.290842	1.303297
00:00:00.593	1.318681	1.290110	1.308425
00:00:00.594	1.320879	1.298168	1.303297
00:00:00.594	1.313553	1.298168	1.285714
00:00:00.594	1.312821	1.314286	1.291575
00:00:00.595	1.297436	1.293040	1.295971
00:00:00.595	1.258608	1.279853	1.287912
00:00:00.595	1.250549	1.286447	1.291575
00:00:00.597	1.267399	1.295971	1.293040
00:00:00.597	1.300366	1.298901	1.299634
00:00:00.598	1.363370	1.306227	1.307692
00:00:00.598	1.392674	1.314286	1.304029
00:00:00.598	1.380952	1.283516	1.309890
00:00:00.599	1.342125	1.309890	1.308425
00:00:00.599	1.279121	1.312821	1.312821
00:00:00.599	1.267399	1.273260	1.309158
00:00:00.599	1.306227	1.277656	1.312088
00:00:00.599	1.283516	1.279853	1.300366
00:00:00.599	1.294505	1.295238	1.304762
00:00:00.602	1.298901	1.298168	1.302564
00:00:00.602	1.293040	1.319414	1.301832
00:00:00.602	1.313553	1.320879	1.301832
00:00:00.602	1.357509	1.326740	1.300366
00:00:00.602	1.333333	1.314286	1.296703
00:00:00.602	1.304029	1.315018	1.299634
00:00:00.602	1.317216	1.307692	1.308425
00:00:00.602	1.299634	1.290842	1.305495
00:00:00.603	1.303297	1.289377	1.315018
00:00:00.603	1.309890	1.279121	1.299634
00:00:00.603	1.311355	1.276190	1.312821
00:00:00.605	1.316484	1.271795	1.311355
00:00:00.605	1.296703	1.273993	1.296703
00:00:00.605	1.296703	1.287912	1.315751
00:00:00.637	1.287179	1.300366	1.312821
00:00:00.637	1.299634	1.309158	1.304029
00:00:00.637	1.333333	1.323077	1.295238
00:00:00.638	1.312088	1.330403	1.294505
00:00:00.638	1.293773	1.334066	1.299634
00:00:00.638	1.306960	1.338462	1.294505
00:00:00.639	1.313553	1.339194	1.295238
00:00:00.639	1.312088	1.306227	1.288645
00:00:00.639	1.329670	1.300366	1.301832
00:00:00.640	1.322344	1.308425	1.304762
00:00:00.640	1.270330	1.304762	1.312088
00:00:00.641	1.265201	1.270330	1.302564
00:00:00.641	1.317216	1.232967	1.309890
00:00:00.641	1.339927	1.227839	1.306960
00:00:00.642	1.360440	1.240293	1.309158
00:00:00.642	1.378022	1.290110	1.317949
00:00:00.642	1.322344	1.307692	1.304029
00:00:00.643	1.258608	1.358242	1.315751
00:00:00.643	1.248352	1.383150	1.299634
00:00:00.643	1.268864	1.367033	1.303297
00:00:00.644	1.321612	1.340659	1.289377
00:00:00.644	1.384615	1.309890	1.291575
00:00:00.644	1.363370	1.303297	1.290842
00:00:00.645	1.338462	1.304762	1.296703
00:00:00.645	1.295971	1.309158	1.308425
00:00:00.646	1.305495	1.298901	1.311355
00:00:00.646	1.313553	1.282784	1.313553
00:00:00.646	1.306227	1.295238	1.317216
00:00:00.647	1.301832	1.290842	1.309158
00:00:00.647	1.190476	1.276923	1.310623
00:00:00.647	1.216850	1.278388	1.300366
00:00:00.648	1.311355	1.315751	1.308425
00:00:00.648	1.410256	1.348718	1.317949
00:00:00.648	1.439560	1.375092	1.310623
00:00:00.649	1.356044	1.333333	1.294505
00:00:00.649	1.276923	1.283516	1.294505
00:00:00.650	1.268864	1.231502	1.302564
00:00:00.650	1.230037	1.243956	1.297436
00:00:00.650	1.221245	1.239560	1.292308
00:00:00.651	1.195604	1.209524	1.286447
00:00:00.651	1.225641	1.241758	1.296703
00:00:00.651	1.311355	1.323077	1.300366
00:00:00.652	1.369963	1.356044	1.309158
00:00:00.652	1.408791	1.342125	1.314286
00:00:00.652	1.428571	1.309890	1.308425
00:00:00.653	1.360440	1.270330	1.311355
00:00:00.653	1.304029	1.279853	1.317216
00:00:00.653	1.245421	1.284249	1.304029
00:00:00.654	1.254945	1.301832	1.314286
00:00:00.654	1.252015	1.326007	1.305495
00:00:00.686	1.276923	1.312821	1.296703
00:00:00.687	1.294505	1.309158	1.312088
00:00:00.687	1.319414	1.312088	1.293773
00:00:00.687	1.353114	1.341392	1.305495
00:00:00.688	1.343590	1.338462	1.294505
00:00:00.688	1.345788	1.343590	1.298168
00:00:00.688	1.288645	1.334066	1.299634
00:00:00.689	1.261538	1.320147	1.297436
00:00:00.689	1.295971	1.312088	1.294505
00:00:00.690	1.337729	1.282784	1.295971
00:00:00.690	1.370696	1.279853	1.298168
00:00:00.690	1.369231	1.290110	1.315751
00:00:00.691	1.347253	1.307692	1.316484
00:00:00.691	1.328938	1.311355	1.306960
00:00:00.691	1.313553	1.314286	1.320879
00:00:00.692	1.263736	1.311355	1.309158
00:00:00.692	1.271062	1.295238	1.300366
00:00:00.692	1.306227	1.301832	1.312821
00:00:00.695	1.299634	1.296703	1.301832
00:00:00.695	1.308425	1.283516	1.290842
00:00:00.695	1.331868	1.315751	1.296703
00:00:00.695	1.332601	1.311355	1.293773
00:00:00.695	1.313553	1.299634	1.287179
00:00:00.695	1.315751	1.336996	1.293773
00:00:00.695	1.304029	1.358242	1.294505
00:00:00.695	1.307692	1.356044	1.296703
00:00:00.698	1.305495	1.341392	1.309158
00:00:00.698	1.305495	1.322344	1.309158
00:00:00.698	1.308425	1.313553	1.316484
00:00:00.698	1.309158	1.330403	1.318681
00:00:00.698	1.295971	1.343590	1.312821
00:00:00.698	1.298168	1.329670	1.314286
00:00:00.698	1.304762	1.275458	1.315018
00:00:00.698	1.312088	1.276190	1.303297
00:00:00.698	1.314286	1.310623	1.314286
00:00:00.699	1.320147	1.367033	1.308425
00:00:00.699	1.309158	1.326740	1.293773
00:00:00.700	1.304029	1.255678	1.298901
00:00:00.700	1.309890	1.225641	1.293773
00:00:00.700	1.298901	1.209524	1.276923
00:00:00.701	1.304762	1.213919	1.295971
00:00:00.701	1.306227	1.207326	1.298901
00:00:00.701	1.304762	1.171429	1.276923
00:00:00.702	1.300366	1.218315	1.290110
00:00:00.702	1.312821	1.301832	1.303297
00:00:00.702	1.295238	1.312088	1.298168
00:00:00.703	1.306227	1.336996	1.310623
00:00:00.703	1.307692	1.361905	1.315751
00:00:00.704	1.305495	1.351648	1.308425
00:00:00.704	1.312088	1.390476	1.312088
00:00:00.736	1.316484	1.386081	1.313553
00:00:00.736	1.318681	1.341392	1.314286
00:00:00.737	1.323810	1.331868	1.304762
00:00:00.737	1.320147	1.331868	1.298901
00:00:00.737	1.321612	1.317949	1.301832
00:00:00.738	1.328938	1.316484	1.301832
00:00:00.738	1.312088	1.317216	1.297436
00:00:00.739	1.311355	1.322344	1.303297
00:00:00.739	1.287912	1.293773	1.285714
00:00:00.739	1.309158	1.296703	1.287179
00:00:00.740	1.315018	1.318681	1.308425
00:00:00.741	1.293773	1.312821	1.294505
00:00:00.741	1.293040	1.321612	1.301832
00:00:00.741	1.282784	1.301099	1.303297
00:00:00.741	1.284982	1.301099	1.309890
00:00:00.741	1.284249	1.294505	1.304029
00:00:00.742	1.329670	1.298901	1.318681
00:00:00.742	1.331868	1.295971	1.307692
00:00:00.742	1.328205	1.309158	1.311355
00:00:00.743	1.324542	1.297436	1.298901
00:00:00.743	1.306227	1.304029	1.303297
00:00:00.744	1.279853	1.285714	1.288645
00:00:00.744	1.284249	1.282051	1.290842
00:00:00.744	1.293773	1.293773	1.293773
00:00:00.745	1.298901	1.300366	1.303297
00:00:00.745	1.315018	1.290110	1.300366
00:00:00.745	1.344322	1.289377	1.304029
00:00:00.746	1.332601	1.287179	1.300366
00:00:00.746	1.315018	1.312088	1.312821
00:00:00.746	1.279121	1.309158	1.306960
00:00:00.747	1.313553	1.314286	1.312821
00:00:00.747	1.354579	1.329670	1.321612
00:00:00.747	1.372161	1.348718	1.320879
00:00:00.748	1.358242	1.327473	1.310623
00:00:00.748	1.356777	1.318681	1.307692
00:00:00.749	1.317216	1.301832	1.297436
00:00:00.749	1.292308	1.323810	1.299634
00:00:00.749	1.275458	1.328938	1.293773
00:00:00.750	1.256410	1.329670	1.286447
00:00:00.750	1.256410	1.329670	1.299634
00:00:00.750	1.265934	1.320147	1.300366
00:00:00.751	1.246886	1.290110	1.290110
00:00:00.751	1.191209	1.271795	1.295971
00:00:00.751	1.223443	1.267399	1.311355
00:00:00.752	1.303297	1.294505	1.306960
00:00:00.752	1.397070	1.320879	1.306227
00:00:00.752	1.437363	1.304029	1.311355
00:00:00.753	1.419780	1.294505	1.315018
00:00:00.753	1.344322	1.312821	1.316484
00:00:00.754	1.284982	1.300366	1.317949
00:00:00.786	1.271062	1.255678	1.309890
00:00:00.786	1.330403	1.243956	1.304762
00:00:00.786	1.370696	1.243956	1.292308
00:00:00.787	1.364835	1.315751	1.306227
00:00:00.787	1.320147	1.354579	1.300366
00:00:00.788	1.278388	1.328938	1.287912
00:00:00.788	1.255678	1.298168	1.297436
00:00:00.788	1.271795	1.297436	1.286447
00:00:00.789	1.289377	1.310623	1.283516
00:00:00.789	1.312821	1.321612	1.308425
00:00:00.789	1.326007	1.309158	1.306227
00:00:00.791	1.309158	1.306960	1.309890
00:00:00.791	1.316484	1.315018	1.313553
00:00:00.791	1.317216	1.303297	1.309158
00:00:00.791	1.312821	1.302564	1.313553
00:00:00.791	1.313553	1.326007	1.311355
00:00:00.791	1.312088	1.301099	1.309890
00:00:00.793	1.309890	1.304029	1.307692
00:00:00.793	1.304762	1.329670	1.308425
00:00:00.793	1.309890	1.330403	1.309158
00:00:00.793	1.315751	1.326740	1.297436
00:00:00.793	1.324542	1.318681	1.298901
00:00:00.796	1.322344	1.347253	1.303297
00:00:00.796	1.317949	1.315751	1.300366
00:00:00.796	1.318681	1.369963	1.302564
00:00:00.796	1.314286	1.392674	1.299634
00:00:00.796	1.300366	1.385348	1.295971
00:00:00.796	1.304029	1.337729	1.299634
00:00:00.796	1.312088	1.231502	1.312088
00:00:00.796	1.306227	1.173626	1.304029
00:00:00.796	1.306960	1.164103	1.306227
00:00:00.797	1.290110	1.117949	1.295238
00:00:00.797	1.284249	1.162637	1.297436
00:00:00.798	1.297436	1.257875	1.306960
00:00:00.798	1.292308	1.334799	1.304029
00:00:00.798	1.294505	1.373626	1.294505
00:00:00.799	1.300366	1.383150	1.301832
00:00:00.799	1.302564	1.320147	1.287912
00:00:00.799	1.327473	1.297436	1.294505
00:00:00.800	1.334799	1.299634	1.302564
00:00:00.800	1.315751	1.304762	1.290842
00:00:00.800	1.317949	1.335531	1.305495
00:00:00.801	1.314286	1.340659	1.304762
00:00:00.801	1.292308	1.338462	1.298168
00:00:00.801	1.306227	1.360440	1.315751
00:00:00.802	1.302564	1.364835	1.313553
00:00:00.802	1.313553	1.319414	1.316484
00:00:00.803	1.332601	1.295971	1.320147
00:00:00.803	1.320147	1.299634	1.319414
00:00:00.803	1.307692	1.304762	1.315018
00:00:00.835	1.306227	1.309158	1.316484
00:00:00.836	1.310623	1.294505	1.308425
00:00:00.836	1.307692	1.264469	1.296703
00:00:00.837	1.332601	1.283516	1.292308
00:00:00.837	1.323810	1.331136	1.298901
00:00:00.837	1.330403	1.352381	1.300366
00:00:00.838	1.323077	1.331868	1.294505
00:00:00.838	1.300366	1.276190	1.289377
00:00:00.838	1.309158	1.248352	1.304762
00:00:00.839	1.307692	1.252747	1.303297
00:00:00.839	1.315018	1.292308	1.305495
00:00:00.839	1.309158	1.361905	1.305495
00:00:00.840	1.298901	1.372894	1.306960
00:00:00.840	1.274725	1.386081	1.315751
00:00:00.840	1.261538	1.306960	1.318681
00:00:00.841	1.259341	1.266667	1.309158
00:00:00.841	1.293040	1.265201	1.311355
00:00:00.842	1.308425	1.330403	1.312821
00:00:00.842	1.323810	1.317216	1.298168
00:00:00.842	1.342125	1.276923	1.304762
00:00:00.843	1.310623	1.224176	1.287912
00:00:00.843	1.300366	1.255678	1.298901
00:00:00.843	1.224176	1.276923	1.297436
00:00:00.844	1.288645	1.288645	1.305495
00:00:00.845	1.342125	1.274725	1.302564
00:00:00.845	1.369231	1.309890	1.289377
00:00:00.845	1.403663	1.363370	1.289377
00:00:00.845	1.381685	1.373626	1.296703
00:00:00.845	1.364835	1.353114	1.300366
00:00:00.846	1.317949	1.307692	1.305495
00:00:00.846	1.286447	1.301099	1.312088
00:00:00.847	1.289377	1.297436	1.309890
00:00:00.847	1.322344	1.301832	1.309158
00:00:00.847	1.272527	1.294505	1.297436
00:00:00.848	1.259341	1.294505	1.309158
00:00:00.848	1.259341	1.293040	1.312821
00:00:00.848	1.237363	1.305495	1.304029
00:00:00.849	1.255678	1.310623	1.298168
00:00:00.849	1.308425	1.318681	1.303297
00:00:00.849	1.321612	1.304029	1.304029
00:00:00.850	1.333333	1.301099	1.290842
00:00:00.850	1.329670	1.294505	1.287179
00:00:00.850	1.339927	1.334799	1.296703
00:00:00.851	1.336264	1.366300	1.301832
00:00:00.851	1.320879	1.355311	1.312088
00:00:00.852	1.312088	1.324542	1.312821
00:00:00.852	1.308425	1.289377	1.304029
00:00:00.852	1.311355	1.266667	1.316484
00:00:00.853	1.306227	1.249084	1.319414
00:00:00.853	1.327473	1.246886	1.312088
00:00:00.885	1.335531	1.345788	1.317949
00:00:00.887	1.301832	1.373626	1.307692
00:00:00.887	1.290842	1.359707	1.305495
00:00:00.887	1.306227	1.293773	1.290842
00:00:00.887	1.317216	1.219780	1.296703
00:00:00.887	1.309158	1.221245	1.306960
00:00:00.887	1.309890	1.236630	1.296703
00:00:00.890	1.271795	1.267399	1.289377
00:00:00.890	1.286447	1.327473	1.298901
00:00:00.890	1.304029	1.330403	1.294505
00:00:00.890	1.317949	1.309158	1.302564
00:00:00.890	1.320147	1.320879	1.304029
00:00:00.890	1.317949	1.331136	1.294505
00:00:00.890	1.317216	1.335531	1.315751
00:00:00.890	1.305495	1.306227	1.316484
00:00:00.893	1.307692	1.309158	1.313553
00:00:00.893	1.306960	1.321612	1.314286
00:00:00.893	1.298901	1.320879	1.314286
00:00:00.893	1.290842	1.289377	1.311355
00:00:00.893	1.312088	1.279853	1.305495
00:00:00.893	1.338462	1.301099	1.305495
00:00:00.893	1.361172	1.323077	1.298901
00:00:00.893	1.356777	1.353114	1.298168
00:00:00.893	1.309890	1.355311	1.286447
00:00:00.894	1.298168	1.325275	1.296703
00:00:00.894	1.312088	1.294505	1.298901
00:00:00.894	1.312821	1.279853	1.304762
00:00:00.895	1.323810	1.257875	1.303297
00:00:00.895	1.321612	1.252747	1.304029
00:00:00.896	1.315018	1.265201	1.291575
00:00:00.896	1.313553	1.301099	1.306960
00:00:00.897	1.309158	1.331136	1.315018
00:00:00.897	1.300366	1.348718	1.312821
00:00:00.897	1.297436	1.351648	1.315751
00:00:00.897	1.285714	1.343590	1.315751
00:00:00.898	1.245421	1.334066	1.315751
00:00:00.898	1.280586	1.312821	1.308425
00:00:00.898	1.305495	1.293773	1.296703
00:00:00.899	1.328938	1.279853	1.301832
00:00:00.899	1.328938	1.249084	1.295238
00:00:00.899	1.312821	1.235897	1.293773
00:00:00.900	1.315751	1.279121	1.295971
00:00:00.900	1.314286	1.306960	1.294505
00:00:00.901	1.312088	1.351648	1.305495
00:00:00.901	1.323810	1.382418	1.305495
00:00:00.901	1.312088	1.342125	1.300366
00:00:00.902	1.317949	1.320879	1.313553
00:00:00.902	1.317216	1.286447	1.309158
00:00:00.902	1.310623	1.257143	1.310623
00:00:00.903	1.323810	1.277656	1.326740
00:00:00.935	1.312821	1.267399	1.318681
00:00:00.935	1.309158	1.283516	1.323810
00:00:00.936	1.315751	1.321612	1.306960
00:00:00.936	1.279853	1.309158	1.295971
00:00:00.936	1.275458	1.320147	1.309890
00:00:00.937	1.282051	1.320147	1.290842
00:00:00.937	1.286447	1.312088	1.288645
00:00:00.937	1.307692	1.334066	1.278388
00:00:00.938	1.290842	1.329670	1.288645
00:00:00.938	1.295971	1.317216	1.287179
00:00:00.938	1.343590	1.333333	1.294505
00:00:00.939	1.455678	1.317949	1.318681
00:00:00.939	1.380952	1.312088	1.316484
00:00:00.940	1.271062	1.309158	1.300366
00:00:00.940	1.225641	1.297436	1.323810
00:00:00.940	1.215385	1.290842	1.314286
00:00:00.941	1.282784	1.295238	1.300366
00:00:00.941	1.356777	1.293773	1.279853
00:00:00.941	1.338462	1.281319	1.273993
00:00:00.942	1.323810	1.292308	1.294505
00:00:00.942	1.400733	1.305495	1.300366
00:00:00.942	1.325275	1.312821	1.292308
00:00:00.943	1.269597	1.317949	1.292308
00:00:00.943	1.284982	1.320147	1.300366
00:00:00.943	1.328938	1.320147	1.304762
00:00:00.944	1.337729	1.306960	1.320879
00:00:00.944	1.323810	1.276923	1.294505
00:00:00.945	1.260073	1.289377	1.292308
00:00:00.945	1.243223	1.295238	1.311355
00:00:00.945	1.269597	1.282784	1.320879
00:00:00.946	1.265201	1.284249	1.331868
00:00:00.946	1.270330	1.300366	1.350183
00:00:00.946	1.248352	1.298901	1.312821
00:00:00.947	1.205861	1.282051	1.309158
00:00:00.947	1.285714	1.271795	1.331868
00:00:00.947	1.591941	1.326007	1.293773
00:00:00.948	1.574359	1.368498	1.354579
00:00:00.948	1.312821	1.359707	1.394139
00:00:00.950	1.217582	1.315018	1.251282
00:00:00.950	1.239560	1.293773	1.197802
00:00:00.950	1.419780	1.273993	1.249084
00:00:00.953	1.264469	1.282784	1.273993
00:00:00.953	1.142125	1.318681	1.271795
00:00:00.953	1.222711	1.339194	1.298901
00:00:00.953	1.317216	1.349451	1.323810
00:00:00.953	1.363370	1.353114	1.374359
00:00:00.953	1.366300	1.315751	1.376557
00:00:00.953	1.338462	1.295971	1.332601
00:00:00.953	1.357509	1.286447	1.317216
00:00:00.953	1.287179	1.279121	1.306227
00:00:00.985	1.471795	1.269597	1.279853
00:00:00.985	1.271062	1.263736	1.262271
00:00:00.985	1.241758	1.284982	1.281319
00:00:00.988	1.287912	1.315751	1.285714
00:00:00.988	1.378022	1.336264	1.250549
00:00:00.988	1.312821	1.316484	1.224176
00:00:00.988	1.430769	1.319414	1.268132
00:00:00.988	1.329670	1.344322	1.323810
00:00:00.988	1.194139	1.324542	1.328205
00:00:00.988	1.193407	1.322344	1.316484
00:00:00.988	1.276190	1.322344	1.315018
00:00:00.989	1.318681	1.339927	1.313553
00:00:00.989	1.314286	1.325275	1.314286
00:00:00.989	1.320879	1.347985	1.305495
00:00:00.990	1.317216	1.330403	1.314286
00:00:00.990	1.308425	1.298901	1.314286
00:00:00.990	1.302564	1.284982	1.323810
00:00:00.991	1.290842	1.267399	1.321612
00:00:00.991	1.290110	1.252015	1.313553
00:00:00.991	1.298168	1.197802	1.304762
00:00:00.992	1.321612	1.186813	1.315751
00:00:00.992	1.334799	1.224908	1.316484
00:00:00.992	1.331136	1.282784	1.312821
00:00:00.993	1.317216	1.272527	1.315751
00:00:00.993	1.309158	1.230769	1.306960
00:00:00.994	1.309890	1.270330	1.297436
00:00:00.994	1.297436	1.313553	1.293773
