timestamp	ch1	ch2	ch3
00:00:00.000	1.315751	1.326740	1.297436
00:00:00.000	1.307692	1.313553	1.290842
00:00:00.001	1.312088	1.317949	1.302564
00:00:00.001	1.315018	1.318681	1.300366
00:00:00.002	1.304762	1.294505	1.298168
00:00:00.002	1.326740	1.302564	1.320147
00:00:00.002	1.308425	1.279121	1.309158
00:00:00.003	1.312821	1.279853	1.315018
00:00:00.003	1.307692	1.279853	1.316484
00:00:00.003	1.305495	1.282051	1.311355
00:00:00.004	1.310623	1.293773	1.315751
00:00:00.004	1.308425	1.303297	1.304029
00:00:00.004	1.311355	1.298901	1.295971
00:00:00.005	1.312088	1.297436	1.290110
00:00:00.005	1.310623	1.315018	1.284249
00:00:00.039	1.316484	1.325275	1.287179
00:00:00.039	1.307692	1.327473	1.294505
00:00:00.039	1.312821	1.327473	1.295971
00:00:00.039	1.309158	1.314286	1.286447
00:00:00.039	1.311355	1.310623	1.304029
00:00:00.039	1.310623	1.305495	1.300366
00:00:00.039	1.307692	1.301099	1.312088
00:00:00.042	1.304762	1.300366	1.312821
00:00:00.042	1.301099	1.290110	1.312088
00:00:00.042	1.312088	1.295971	1.320879
00:00:00.042	1.312088	1.301099	1.315018
00:00:00.042	1.300366	1.293040	1.306227
00:00:00.042	1.312088	1.302564	1.310623
00:00:00.042	1.309890	1.299634	1.303297
00:00:00.042	1.312088	1.307692	1.300366
00:00:00.044	1.320879	1.308425	1.303297
00:00:00.044	1.307692	1.300366	1.296703
00:00:00.044	1.306960	1.301099	1.282051
00:00:00.044	1.298168	1.297436	1.282784
00:00:00.044	1.315018	1.324542	1.300366
00:00:00.045	1.309890	1.344322	1.295238
00:00:00.045	1.301832	1.342125	1.295971
00:00:00.045	1.311355	1.345788	1.312821
00:00:00.046	1.307692	1.337729	1.310623
00:00:00.046	1.315018	1.315018	1.323810
00:00:00.046	1.311355	1.279121	1.315751
00:00:00.047	1.298168	1.254945	1.307692
00:00:00.047	1.300366	1.257875	1.313553
00:00:00.047	1.305495	1.268864	1.312088
00:00:00.048	1.307692	1.285714	1.306227
00:00:00.048	1.312821	1.290842	1.305495
00:00:00.048	1.303297	1.293040	1.290842
00:00:00.049	1.312821	1.312088	1.297436
00:00:00.049	1.303297	1.324542	1.295971
00:00:00.049	1.311355	1.343590	1.289377
00:00:00.050	1.316484	1.320879	1.293040
00:00:00.050	1.311355	1.285714	1.284249
00:00:00.051	1.317949	1.295971	1.300366
00:00:00.051	1.321612	1.309158	1.300366
00:00:00.051	1.304762	1.297436	1.300366
00:00:00.052	1.317949	1.307692	1.320879
00:00:00.052	1.306960	1.304762	1.310623
00:00:00.052	1.303297	1.306960	1.322344
00:00:00.053	1.309158	1.307692	1.328205
00:00:00.053	1.292308	1.290110	1.316484
00:00:00.053	1.304762	1.296703	1.317949
00:00:00.054	1.306227	1.298901	1.310623
00:00:00.054	1.310623	1.301832	1.307692
00:00:00.054	1.315751	1.314286	1.296703
00:00:00.055	1.316484	1.318681	1.294505
00:00:00.087	1.317216	1.321612	1.282784
00:00:00.087	1.318681	1.333333	1.291575
00:00:00.088	1.305495	1.320879	1.291575
00:00:00.088	1.320879	1.323810	1.297436
00:00:00.088	1.314286	1.320879	1.295238
00:00:00.089	1.299634	1.302564	1.298168
00:00:00.089	1.305495	1.303297	1.312088
00:00:00.090	1.303297	1.291575	1.295238
00:00:00.090	1.314286	1.306227	1.318681
00:00:00.090	1.309890	1.298901	1.317949
00:00:00.091	1.303297	1.294505	1.309158
00:00:00.091	1.306227	1.294505	1.314286
00:00:00.091	1.304029	1.302564	1.311355
00:00:00.092	1.304029	1.304762	1.312821
00:00:00.092	1.314286	1.301832	1.300366
00:00:00.092	1.313553	1.307692	1.304029
00:00:00.093	1.315018	1.318681	1.304029
00:00:00.093	1.314286	1.317949	1.298168
00:00:00.093	1.312088	1.312088	1.282051
00:00:00.094	1.314286	1.320879	1.300366
00:00:00.094	1.313553	1.318681	1.298168
00:00:00.095	1.300366	1.306227	1.297436
00:00:00.095	1.317949	1.310623	1.306960
00:00:00.095	1.312088	1.295238	1.304762
00:00:00.096	1.306227	1.288645	1.306960
00:00:00.096	1.314286	1.284249	1.314286
00:00:00.096	1.310623	1.285714	1.313553
00:00:00.097	1.311355	1.290110	1.316484
00:00:00.097	1.309158	1.291575	1.314286
00:00:00.097	1.294505	1.282051	1.300366
00:00:00.098	1.313553	1.312088	1.315018
00:00:00.098	1.306227	1.307692	1.300366
00:00:00.098	1.311355	1.314286	1.295971
00:00:00.099	1.314286	1.320147	1.299634
00:00:00.099	1.312088	1.320147	1.284982
00:00:00.103	1.312088	1.325275	1.295238
00:00:00.103	1.319414	1.330403	1.303297
00:00:00.103	1.306227	1.323077	1.300366
00:00:00.103	1.308425	1.319414	1.300366
00:00:00.103	1.306960	1.303297	1.310623
00:00:00.103	1.297436	1.286447	1.312821
00:00:00.103	1.314286	1.284982	1.314286
00:00:00.103	1.304762	1.283516	1.304029
00:00:00.103	1.297436	1.290842	1.306227
00:00:00.103	1.307692	1.301832	1.311355
00:00:00.103	1.305495	1.302564	1.309158
00:00:00.103	1.316484	1.309158	1.315751
00:00:00.105	1.303297	1.295971	1.298168
00:00:00.105	1.315751	1.309890	1.298901
00:00:00.105	1.315751	1.317216	1.298901
00:00:00.137	1.309890	1.312821	1.285714
00:00:00.137	1.313553	1.326007	1.293040
00:00:00.137	1.309158	1.323810	1.295238
00:00:00.138	1.308425	1.317216	1.293773
00:00:00.138	1.309890	1.306227	1.298168
00:00:00.139	1.312088	1.306227	1.305495
00:00:00.139	1.308425	1.298168	1.304029
00:00:00.139	1.301099	1.282784	1.306960
00:00:00.140	1.301832	1.270330	1.304762
00:00:00.140	1.306960	1.282051	1.316484
00:00:00.140	1.306960	1.291575	1.317216
00:00:00.141	1.304029	1.291575	1.312821
00:00:00.141	1.315018	1.285714	1.314286
00:00:00.141	1.310623	1.284249	1.302564
00:00:00.142	1.298168	1.287179	1.289377
00:00:00.142	1.313553	1.319414	1.300366
00:00:00.142	1.308425	1.330403	1.293040
00:00:00.143	1.309158	1.334799	1.288645
00:00:00.143	1.321612	1.339927	1.292308
00:00:00.144	1.317949	1.326007	1.297436
00:00:00.144	1.309158	1.316484	1.299634
00:00:00.144	1.312088	1.301099	1.300366
00:00:00.145	1.312088	1.305495	1.304029
00:00:00.145	1.312088	1.313553	1.314286
00:00:00.145	1.306227	1.307692	1.314286
00:00:00.146	1.309158	1.301832	1.320879
00:00:00.146	1.309158	1.292308	1.320879
00:00:00.146	1.301832	1.293040	1.312088
00:00:00.147	1.312088	1.296703	1.323810
00:00:00.147	1.315751	1.304029	1.315751
00:00:00.147	1.315018	1.302564	1.309158
00:00:00.148	1.308425	1.311355	1.299634
00:00:00.148	1.316484	1.318681	1.299634
00:00:00.149	1.316484	1.337729	1.298901
00:00:00.149	1.306227	1.340659	1.288645
00:00:00.149	1.301832	1.334066	1.293773
00:00:00.150	1.300366	1.323077	1.293040
00:00:00.151	1.306227	1.312821	1.293040
00:00:00.151	1.315751	1.298901	1.304762
00:00:00.151	1.323077	1.285714	1.309890
00:00:00.151	1.312088	1.269597	1.303297
00:00:00.151	1.313553	1.279853	1.314286
00:00:00.152	1.315018	1.275458	1.315018
00:00:00.152	1.309890	1.280586	1.314286
00:00:00.152	1.312088	1.293773	1.318681
00:00:00.153	1.309158	1.282051	1.312821
00:00:00.153	1.310623	1.291575	1.310623
00:00:00.154	1.310623	1.290842	1.304029
00:00:00.154	1.305495	1.303297	1.299634
00:00:00.154	1.310623	1.316484	1.290842
00:00:00.186	1.306960	1.317216	1.290110
00:00:00.187	1.323077	1.336264	1.291575
00:00:00.187	1.304762	1.328205	1.291575
00:00:00.188	1.306960	1.320879	1.281319
00:00:00.188	1.318681	1.328938	1.298901
00:00:00.188	1.315751	1.318681	1.300366
00:00:00.189	1.309890	1.320879	1.309158
00:00:00.189	1.301099	1.298168	1.303297
00:00:00.189	1.302564	1.293040	1.310623
00:00:00.190	1.306227	1.297436	1.318681
00:00:00.190	1.296703	1.290110	1.321612
00:00:00.190	1.311355	1.295971	1.318681
00:00:00.191	1.319414	1.296703	1.315018
00:00:00.191	1.308425	1.300366	1.306960
00:00:00.191	1.300366	1.291575	1.304029
00:00:00.192	1.312088	1.309158	1.305495
00:00:00.192	1.301832	1.310623	1.299634
00:00:00.193	1.304762	1.319414	1.299634
00:00:00.193	1.316484	1.331868	1.287179
00:00:00.193	1.307692	1.336264	1.297436
00:00:00.194	1.310623	1.330403	1.288645
00:00:00.194	1.303297	1.314286	1.292308
00:00:00.194	1.313553	1.303297	1.309158
00:00:00.195	1.307692	1.279853	1.308425
00:00:00.195	1.314286	1.279121	1.305495
00:00:00.195	1.306227	1.288645	1.309158
00:00:00.197	1.312821	1.283516	1.319414
00:00:00.197	1.302564	1.274725	1.311355
00:00:00.197	1.311355	1.282784	1.320147
00:00:00.197	1.313553	1.297436	1.317216
00:00:00.197	1.311355	1.297436	1.303297
00:00:00.198	1.313553	1.309158	1.303297
00:00:00.198	1.313553	1.318681	1.303297
00:00:00.198	1.312088	1.308425	1.296703
00:00:00.199	1.310623	1.314286	1.298168
00:00:00.199	1.310623	1.328205	1.293773
00:00:00.199	1.306227	1.322344	1.285714
00:00:00.201	1.317216	1.339194	1.298901
00:00:00.201	1.310623	1.342125	1.294505
00:00:00.201	1.303297	1.317216	1.298168
00:00:00.201	1.315018	1.310623	1.318681
00:00:00.201	1.309158	1.292308	1.307692
00:00:00.201	1.307692	1.281319	1.298901
00:00:00.202	1.303297	1.290842	1.313553
00:00:00.203	1.303297	1.290842	1.317216
00:00:00.203	1.293773	1.287912	1.317216
00:00:00.203	1.306960	1.293773	1.308425
00:00:00.203	1.308425	1.294505	1.298901
00:00:00.204	1.312821	1.308425	1.306960
00:00:00.204	1.307692	1.303297	1.293040
00:00:00.236	1.309158	1.303297	1.302564
00:00:00.237	1.319414	1.307692	1.292308
00:00:00.237	1.306960	1.301832	1.282784
00:00:00.237	1.300366	1.312821	1.292308
00:00:00.238	1.311355	1.317216	1.301832
00:00:00.238	1.306227	1.309158	1.298901
00:00:00.238	1.323810	1.312088	1.314286
00:00:00.239	1.307692	1.309158	1.312821
00:00:00.239	1.297436	1.293773	1.308425
00:00:00.239	1.314286	1.293040	1.320147
00:00:00.240	1.319414	1.284982	1.317216
00:00:00.240	1.309158	1.283516	1.315751
00:00:00.240	1.311355	1.293040	1.320147
00:00:00.241	1.304762	1.288645	1.317949
00:00:00.241	1.294505	1.305495	1.309890
00:00:00.242	1.304029	1.311355	1.308425
00:00:00.242	1.306227	1.313553	1.297436
00:00:00.242	1.295971	1.315751	1.297436
00:00:00.243	1.315018	1.335531	1.291575
00:00:00.243	1.320879	1.339194	1.287912
00:00:00.243	1.311355	1.342125	1.298901
00:00:00.244	1.302564	1.331868	1.285714
00:00:00.244	1.300366	1.331868	1.304029
00:00:00.244	1.307692	1.313553	1.309158
00:00:00.245	1.308425	1.299634	1.313553
00:00:00.245	1.312088	1.290110	1.317949
00:00:00.245	1.314286	1.281319	1.317216
00:00:00.246	1.303297	1.266667	1.306227
00:00:00.246	1.299634	1.267399	1.303297
00:00:00.247	1.311355	1.285714	1.313553
00:00:00.247	1.301099	1.284249	1.298168
00:00:00.247	1.308425	1.302564	1.306227
00:00:00.248	1.306960	1.312821	1.296703
00:00:00.248	1.314286	1.312088	1.296703
00:00:00.248	1.313553	1.317216	1.293773
00:00:00.249	1.315018	1.320147	1.291575
00:00:00.249	1.320147	1.325275	1.294505
00:00:00.249	1.315751	1.326740	1.296703
00:00:00.250	1.308425	1.325275	1.296703
00:00:00.250	1.291575	1.304762	1.295238
00:00:00.250	1.303297	1.290110	1.312088
00:00:00.251	1.309158	1.275458	1.312821
00:00:00.251	1.304029	1.268864	1.317949
00:00:00.252	1.312088	1.276190	1.315018
00:00:00.252	1.326740	1.273260	1.312821
00:00:00.252	1.311355	1.273993	1.313553
00:00:00.253	1.300366	1.295238	1.314286
00:00:00.253	1.300366	1.306960	1.304762
00:00:00.253	1.298168	1.343590	1.311355
00:00:00.254	1.306227	1.353846	1.305495
00:00:00.287	1.298168	1.340659	1.284249
00:00:00.287	1.312088	1.332601	1.292308
00:00:00.287	1.325275	1.326740	1.284982
00:00:00.287	1.340659	1.319414	1.293040
00:00:00.287	1.339927	1.314286	1.295238
00:00:00.288	1.305495	1.297436	1.291575
00:00:00.288	1.312088	1.311355	1.309890
00:00:00.288	1.311355	1.293040	1.305495
00:00:00.289	1.306227	1.283516	1.309158
00:00:00.289	1.307692	1.280586	1.311355
00:00:00.289	1.307692	1.282051	1.322344
00:00:00.290	1.313553	1.303297	1.323810
00:00:00.290	1.306227	1.299634	1.312821
00:00:00.292	1.303297	1.284249	1.307692
00:00:00.292	1.313553	1.289377	1.306960
00:00:00.292	1.315751	1.279853	1.303297
00:00:00.292	1.323810	1.300366	1.299634
00:00:00.292	1.326740	1.323077	1.291575
00:00:00.292	1.322344	1.323810	1.280586
00:00:00.294	1.318681	1.338462	1.287179
00:00:00.294	1.313553	1.331868	1.290842
00:00:00.294	1.307692	1.331136	1.290842
00:00:00.294	1.295971	1.328938	1.299634
00:00:00.294	1.260806	1.310623	1.300366
00:00:00.294	1.247619	1.299634	1.318681
00:00:00.296	1.301099	1.299634	1.317216
00:00:00.296	1.305495	1.292308	1.312088
00:00:00.296	1.315018	1.295238	1.317216
00:00:00.297	1.306960	1.279121	1.311355
00:00:00.297	1.306227	1.275458	1.306227
00:00:00.297	1.315018	1.290110	1.302564
00:00:00.297	1.317949	1.300366	1.298168
00:00:00.297	1.313553	1.306960	1.298901
00:00:00.299	1.312088	1.316484	1.301832
00:00:00.299	1.323810	1.311355	1.300366
00:00:00.299	1.328205	1.304029	1.284982
00:00:00.299	1.320879	1.314286	1.295238
00:00:00.299	1.291575	1.294505	1.289377
00:00:00.299	1.299634	1.300366	1.295238
00:00:00.300	1.288645	1.304762	1.300366
00:00:00.300	1.288645	1.317216	1.312821
00:00:00.301	1.293040	1.309158	1.300366
00:00:00.301	1.308425	1.301832	1.322344
00:00:00.301	1.339927	1.290842	1.322344
00:00:00.302	1.371429	1.280586	1.312821
00:00:00.302	1.330403	1.282051	1.312821
00:00:00.302	1.297436	1.303297	1.311355
00:00:00.303	1.308425	1.310623	1.311355
00:00:00.303	1.284249	1.304029	1.296703
00:00:00.303	1.260806	1.311355	1.295238
00:00:00.336	1.280586	1.309158	1.290842
00:00:00.336	1.301832	1.316484	1.290842
00:00:00.336	1.394139	1.329670	1.292308
00:00:00.337	1.363370	1.354579	1.289377
00:00:00.337	1.364835	1.333333	1.295971
00:00:00.337	1.347253	1.328938	1.306227
00:00:00.338	1.313553	1.322344	1.309158
00:00:00.339	1.291575	1.311355	1.299634
00:00:00.339	1.287179	1.319414	1.313553
00:00:00.339	1.304029	1.302564	1.313553
00:00:00.339	1.306227	1.292308	1.317216
00:00:00.340	1.306960	1.276190	1.317216
00:00:00.340	1.300366	1.274725	1.311355
00:00:00.340	1.310623	1.279853	1.309158
00:00:00.341	1.306960	1.277656	1.309158
00:00:00.341	1.305495	1.296703	1.304762
00:00:00.341	1.306227	1.317949	1.300366
00:00:00.342	1.306227	1.312088	1.297436
00:00:00.342	1.308425	1.312088	1.298168
00:00:00.342	1.312088	1.301832	1.294505
00:00:00.343	1.302564	1.273260	1.288645
00:00:00.343	1.311355	1.282784	1.298168
00:00:00.343	1.314286	1.279853	1.302564
00:00:00.344	1.302564	1.262271	1.300366
00:00:00.344	1.318681	1.266667	1.316484
00:00:00.345	1.312088	1.300366	1.306227
00:00:00.345	1.315018	1.333333	1.320879
00:00:00.345	1.307692	1.348718	1.312088
00:00:00.346	1.309890	1.344322	1.318681
00:00:00.346	1.300366	1.338462	1.303297
00:00:00.346	1.298901	1.353114	1.306227
00:00:00.347	1.300366	1.341392	1.310623
00:00:00.347	1.297436	1.313553	1.295971
00:00:00.347	1.317216	1.337729	1.306227
00:00:00.348	1.308425	1.335531	1.299634
00:00:00.348	1.305495	1.336996	1.295971
00:00:00.348	1.308425	1.316484	1.290842
00:00:00.349	1.300366	1.290842	1.292308
00:00:00.349	1.323810	1.289377	1.300366
00:00:00.350	1.334799	1.289377	1.297436
00:00:00.350	1.315751	1.293773	1.306960
00:00:00.350	1.315751	1.282051	1.309890
00:00:00.351	1.312088	1.287912	1.306960
00:00:00.351	1.304762	1.293773	1.314286
00:00:00.351	1.300366	1.291575	1.314286
00:00:00.352	1.300366	1.286447	1.315751
00:00:00.352	1.312088	1.342857	1.325275
00:00:00.352	1.308425	1.336996	1.309158
00:00:00.353	1.310623	1.318681	1.306960
00:00:00.353	1.312088	1.303297	1.300366
00:00:00.385	1.315018	1.279121	1.293040
00:00:00.386	1.311355	1.284982	1.291575
00:00:00.386	1.315018	1.293040	1.291575
00:00:00.386	1.314286	1.308425	1.288645
00:00:00.387	1.307692	1.308425	1.294505
00:00:00.387	1.314286	1.304029	1.293040
00:00:00.387	1.302564	1.311355	1.294505
00:00:00.388	1.298168	1.296703	1.303297
00:00:00.388	1.297436	1.287912	1.307692
00:00:00.389	1.305495	1.275458	1.310623
00:00:00.389	1.306960	1.270330	1.316484
00:00:00.389	1.321612	1.274725	1.328205
00:00:00.392	1.305495	1.257875	1.310623
00:00:00.392	1.309158	1.280586	1.316484
00:00:00.392	1.312821	1.303297	1.310623
00:00:00.392	1.305495	1.311355	1.306227
00:00:00.392	1.315018	1.315751	1.300366
00:00:00.392	1.309890	1.342857	1.294505
00:00:00.392	1.298168	1.339194	1.295971
00:00:00.392	1.308425	1.343590	1.290110
00:00:00.392	1.320879	1.346520	1.293773
00:00:00.393	1.316484	1.329670	1.298901
00:00:00.393	1.317949	1.309890	1.300366
00:00:00.395	1.308425	1.285714	1.290842
00:00:00.395	1.311355	1.270330	1.300366
00:00:00.395	1.299634	1.271795	1.298901
00:00:00.395	1.303297	1.288645	1.310623
00:00:00.395	1.313553	1.306960	1.315751
00:00:00.395	1.300366	1.311355	1.316484
00:00:00.396	1.310623	1.356044	1.322344
00:00:00.396	1.296703	1.341392	1.306227
00:00:00.396	1.310623	1.317216	1.308425
00:00:00.397	1.306227	1.317216	1.303297
00:00:00.397	1.303297	1.328938	1.304029
00:00:00.398	1.306960	1.303297	1.294505
00:00:00.398	1.304029	1.276190	1.293773
00:00:00.398	1.323077	1.281319	1.303297
00:00:00.399	1.318681	1.301099	1.289377
00:00:00.399	1.308425	1.312088	1.300366
00:00:00.399	1.309158	1.309158	1.302564
00:00:00.400	1.298901	1.289377	1.293040
00:00:00.400	1.304762	1.301832	1.307692
00:00:00.400	1.303297	1.299634	1.300366
00:00:00.401	1.311355	1.304029	1.310623
00:00:00.401	1.319414	1.301099	1.312821
00:00:00.401	1.307692	1.298901	1.315751
00:00:00.402	1.308425	1.290842	1.311355
00:00:00.402	1.308425	1.301832	1.316484
00:00:00.403	1.309158	1.309158	1.311355
00:00:00.403	1.306960	1.312821	1.306227
00:00:00.435	1.318681	1.327473	1.298901
00:00:00.435	1.300366	1.316484	1.286447
00:00:00.436	1.301099	1.330403	1.293773
00:00:00.436	1.293040	1.315018	1.299634
00:00:00.436	1.289377	1.279121	1.287179
00:00:00.437	1.312088	1.258608	1.287179
00:00:00.437	1.295971	1.246154	1.295238
00:00:00.438	1.301832	1.246154	1.298901
00:00:00.438	1.304029	1.261538	1.309158
00:00:00.438	1.334799	1.320879	1.312821
00:00:00.439	1.345055	1.346520	1.313553
00:00:00.439	1.343590	1.361905	1.326007
00:00:00.439	1.298901	1.338462	1.299634
00:00:00.440	1.320147	1.341392	1.303297
00:00:00.440	1.316484	1.328205	1.307692
00:00:00.440	1.309158	1.304762	1.309158
00:00:00.441	1.293773	1.305495	1.306227
00:00:00.441	1.282784	1.302564	1.293040
00:00:00.442	1.265201	1.298901	1.283516
00:00:00.442	1.276923	1.304029	1.287912
00:00:00.442	1.294505	1.303297	1.290842
00:00:00.443	1.310623	1.301099	1.287912
00:00:00.443	1.326740	1.296703	1.291575
00:00:00.443	1.348718	1.270330	1.284982
00:00:00.444	1.347253	1.293773	1.318681
00:00:00.444	1.317949	1.295238	1.317216
00:00:00.444	1.296703	1.302564	1.316484
00:00:00.445	1.310623	1.317949	1.314286
00:00:00.445	1.294505	1.309158	1.306227
00:00:00.445	1.295971	1.306227	1.315018
00:00:00.446	1.298901	1.302564	1.304029
00:00:00.446	1.309158	1.306227	1.305495
00:00:00.447	1.304029	1.310623	1.310623
00:00:00.447	1.292308	1.293773	1.298168
00:00:00.447	1.312821	1.284982	1.295238
00:00:00.448	1.313553	1.295971	1.296703
00:00:00.448	1.310623	1.296703	1.279853
00:00:00.448	1.331136	1.307692	1.297436
00:00:00.449	1.293773	1.299634	1.290110
00:00:00.449	1.281319	1.297436	1.296703
00:00:00.449	1.315018	1.295238	1.301832
00:00:00.450	1.312088	1.294505	1.309158
00:00:00.450	1.323810	1.298901	1.302564
00:00:00.450	1.317216	1.286447	1.301832
00:00:00.451	1.276923	1.288645	1.310623
00:00:00.451	1.204396	1.284982	1.304029
00:00:00.452	1.237363	1.292308	1.300366
00:00:00.452	1.320879	1.294505	1.309158
00:00:00.452	1.352381	1.275458	1.298168
00:00:00.455	1.341392	1.302564	1.306227
00:00:00.486	1.353114	1.327473	1.320879
00:00:00.486	1.333333	1.331868	1.307692
00:00:00.486	1.314286	1.338462	1.307692
00:00:00.486	1.303297	1.367033	1.319414
00:00:00.486	1.359707	1.380220	1.322344
00:00:00.488	1.409524	1.348718	1.290110
00:00:00.488	1.452747	1.320147	1.291575
00:00:00.488	1.439560	1.294505	1.297436
00:00:00.488	1.347253	1.279121	1.304762
00:00:00.488	1.285714	1.263004	1.310623
00:00:00.488	1.208791	1.240293	1.302564
00:00:00.491	1.224908	1.235897	1.310623
00:00:00.491	1.230037	1.243223	1.306227
00:00:00.491	1.182418	1.274725	1.271062
00:00:00.491	1.303297	1.327473	1.273993
00:00:00.491	1.353114	1.328938	1.268132
00:00:00.491	1.372161	1.328205	1.285714
00:00:00.491	1.367033	1.339927	1.361905
00:00:00.491	1.320879	1.328938	1.353114
00:00:00.492	1.282784	1.350916	1.379487
00:00:00.492	1.304762	1.342857	1.306227
00:00:00.492	1.307692	1.317949	1.293773
00:00:00.493	1.374359	1.315751	1.290110
00:00:00.493	1.376557	1.334799	1.283516
00:00:00.493	1.375092	1.414652	1.294505
00:00:00.494	1.310623	1.454212	1.297436
00:00:00.494	1.189744	1.448352	1.322344
00:00:00.494	1.121612	1.361172	1.317216
00:00:00.496	1.104762	1.265201	1.305495
00:00:00.496	1.218315	1.243956	1.307692
00:00:00.496	1.284982	1.224908	1.282051
00:00:00.496	1.378022	1.186081	1.290110
00:00:00.496	1.418315	1.124542	1.308425
00:00:00.497	1.421978	1.121612	1.307692
00:00:00.497	1.402198	1.167033	1.274725
00:00:00.497	1.317949	1.170696	1.255678
00:00:00.498	1.254945	1.225641	1.267399
00:00:00.498	1.284249	1.319414	1.293773
00:00:00.498	1.319414	1.352381	1.327473
00:00:00.499	1.315018	1.370696	1.357509
00:00:00.499	1.345055	1.356777	1.339194
00:00:00.499	1.320147	1.361905	1.321612
00:00:00.500	1.282051	1.370696	1.321612
00:00:00.500	1.285714	1.347985	1.307692
00:00:00.501	1.298168	1.310623	1.342125
00:00:00.501	1.361905	1.298901	1.343590
00:00:00.501	1.407326	1.343590	1.347253
00:00:00.502	1.417582	1.373626	1.311355
00:00:00.502	1.331136	1.356044	1.293040
00:00:00.502	1.242491	1.376557	1.273260
00:00:00.535	1.249084	1.326740	1.271062
00:00:00.535	1.263736	1.235165	1.261538
00:00:00.535	1.313553	1.234432	1.271062
00:00:00.536	1.339927	1.269597	1.271795
00:00:00.536	1.364103	1.284249	1.282051
00:00:00.536	1.356777	1.288645	1.290110
00:00:00.537	1.307692	1.304029	1.315018
00:00:00.537	1.246886	1.339194	1.309890
00:00:00.537	1.235165	1.376557	1.299634
00:00:00.538	1.208791	1.358974	1.290842
00:00:00.538	1.249084	1.340659	1.311355
00:00:00.538	1.259341	1.317949	1.312821
00:00:00.539	1.206593	1.323077	1.322344
00:00:00.539	1.259341	1.319414	1.322344
00:00:00.540	1.365568	1.387546	1.330403
00:00:00.540	1.387546	1.260806	1.315751
00:00:00.540	1.389744	1.100366	1.276190
00:00:00.541	1.421978	1.195604	1.283516
00:00:00.541	1.378022	1.283516	1.280586
00:00:00.541	1.359707	1.306227	1.297436
00:00:00.542	1.243223	1.279121	1.298168
00:00:00.542	1.109890	1.268864	1.282784
00:00:00.542	1.154579	1.239560	1.276923
00:00:00.543	1.270330	1.301832	1.287179
00:00:00.543	1.395604	1.345788	1.293773
00:00:00.543	1.501832	1.391209	1.315751
00:00:00.544	1.517949	1.487912	1.323810
00:00:00.544	1.401465	1.452747	1.309158
00:00:00.545	1.273993	1.388278	1.312088
00:00:00.545	1.197070	1.341392	1.307692
00:00:00.545	1.175092	1.326740	1.308425
00:00:00.546	1.254945	1.306227	1.299634
00:00:00.546	1.299634	1.304029	1.287179
00:00:00.546	1.303297	1.267399	1.287912
00:00:00.547	1.314286	1.221245	1.269597
00:00:00.548	1.301832	1.221978	1.256410
00:00:00.548	1.316484	1.277656	1.259341
00:00:00.548	1.310623	1.353114	1.268864
00:00:00.548	1.336996	1.442491	1.295238
00:00:00.548	1.349451	1.551648	1.318681
00:00:00.552	1.339194	1.575092	1.325275
00:00:00.552	1.331136	1.506960	1.329670
00:00:00.552	1.326007	1.336996	1.323077
00:00:00.552	1.334066	1.194139	1.334066
00:00:00.552	1.337729	1.198535	1.345055
00:00:00.552	1.323810	1.182418	1.358242
00:00:00.552	1.315018	1.065934	1.356777
00:00:00.552	1.321612	1.039560	1.347253
00:00:00.552	1.328205	1.123077	1.353846
00:00:00.552	1.332601	1.216850	1.347253
00:00:00.584	1.340659	1.309890	1.336996
00:00:00.587	1.309158	1.356777	1.315018
00:00:00.587	1.324542	1.315018	1.312821
00:00:00.587	1.327473	1.242491	1.304029
00:00:00.587	1.332601	1.306960	1.307692
00:00:00.587	1.252015	1.421978	1.309158
00:00:00.587	1.243956	1.323810	1.305495
00:00:00.587	1.275458	1.196337	1.314286
00:00:00.587	1.293773	1.113553	1.306227
00:00:00.587	1.334799	1.121612	1.309158
00:00:00.588	1.419048	1.171429	1.311355
00:00:00.588	1.432967	1.263004	1.312088
00:00:00.589	1.294505	1.282051	1.299634
00:00:00.589	1.136264	1.397802	1.284249
00:00:00.589	1.068132	1.600000	1.308425
00:00:00.590	1.174359	1.553846	1.312821
00:00:00.590	1.255678	1.515751	1.318681
00:00:00.590	1.326740	1.552381	1.329670
00:00:00.591	1.357509	1.382418	1.303297
00:00:00.591	1.358242	1.107692	1.302564
00:00:00.591	1.339927	1.008791	1.295971
00:00:00.592	1.327473	1.100366	1.289377
00:00:00.592	1.358242	1.219048	1.297436
00:00:00.593	1.375824	1.199267	1.291575
00:00:00.593	1.377289	1.101832	1.315751
00:00:00.593	1.248352	1.112821	1.291575
00:00:00.594	1.253480	1.301099	1.287179
00:00:00.594	1.331136	1.441026	1.309890
00:00:00.594	1.393407	1.518681	1.336996
00:00:00.595	1.436630	1.480586	1.321612
00:00:00.595	1.424908	1.402930	1.313553
00:00:00.595	1.354579	1.336264	1.297436
00:00:00.596	1.303297	1.294505	1.299634
00:00:00.596	1.216850	1.204396	1.276190
00:00:00.596	1.244689	1.311355	1.276190
00:00:00.597	1.293040	1.364103	1.266667
00:00:00.597	1.315018	1.310623	1.265934
00:00:00.598	1.347985	1.287912	1.273993
00:00:00.598	1.331868	1.285714	1.273260
00:00:00.598	1.317216	1.331868	1.284982
00:00:00.599	1.284982	1.259341	1.293773
00:00:00.599	1.256410	1.281319	1.303297
00:00:00.600	1.240293	1.327473	1.307692
00:00:00.600	1.268864	1.361905	1.315018
00:00:00.600	1.312088	1.430037	1.326007
00:00:00.600	1.318681	1.430769	1.320879
00:00:00.601	1.304762	1.479121	1.316484
00:00:00.601	1.290110	1.544322	1.325275
00:00:00.601	1.280586	1.579487	1.317949
00:00:00.602	1.270330	1.544322	1.321612
00:00:00.634	1.250549	1.295971	1.282051
00:00:00.634	1.316484	1.225641	1.285714
00:00:00.635	1.328938	1.232967	1.294505
00:00:00.635	1.290110	1.279121	1.283516
00:00:00.635	1.249817	1.326740	1.296703
00:00:00.636	1.301832	1.326007	1.297436
00:00:00.636	1.367766	1.340659	1.311355
00:00:00.637	1.417582	1.317216	1.300366
00:00:00.637	1.419048	1.267399	1.305495
00:00:00.637	1.374359	1.236630	1.309158
00:00:00.638	1.320879	1.235165	1.309158
00:00:00.638	1.325275	1.295238	1.334066
00:00:00.638	1.356777	1.301832	1.310623
00:00:00.639	1.336264	1.320879	1.304029
00:00:00.639	1.282784	1.325275	1.297436
00:00:00.639	1.254945	1.304029	1.309890
00:00:00.640	1.279853	1.326740	1.314286
00:00:00.640	1.276923	1.319414	1.298168
00:00:00.640	1.284249	1.304029	1.309158
00:00:00.641	1.231502	1.294505	1.302564
00:00:00.641	1.227839	1.284249	1.289377
00:00:00.642	1.252015	1.283516	1.284982
00:00:00.642	1.328938	1.260806	1.270330
00:00:00.642	1.400733	1.258608	1.293040
00:00:00.643	1.387546	1.247619	1.306227
00:00:00.644	1.323077	1.222711	1.305495
00:00:00.644	1.276190	1.232967	1.312821
00:00:00.645	1.304762	1.227106	1.303297
00:00:00.645	1.309158	1.256410	1.319414
00:00:00.645	1.307692	1.270330	1.317216
00:00:00.645	1.306227	1.287179	1.319414
00:00:00.645	1.315751	1.298901	1.317949
00:00:00.645	1.317216	1.323077	1.311355
00:00:00.647	1.312088	1.328938	1.316484
00:00:00.647	1.315018	1.341392	1.307692
00:00:00.647	1.312088	1.336264	1.293773
00:00:00.647	1.318681	1.345788	1.297436
00:00:00.647	1.314286	1.331868	1.287912
00:00:00.650	1.320879	1.318681	1.294505
00:00:00.650	1.312088	1.319414	1.292308
00:00:00.650	1.313553	1.306227	1.293040
00:00:00.650	1.308425	1.294505	1.293040
00:00:00.650	1.304762	1.295238	1.292308
00:00:00.650	1.320879	1.308425	1.303297
00:00:00.650	1.316484	1.290842	1.300366
00:00:00.650	1.331868	1.286447	1.323810
00:00:00.650	1.328205	1.290110	1.312088
00:00:00.651	1.295238	1.325275	1.314286
00:00:00.651	1.268132	1.333333	1.315751
00:00:00.652	1.284249	1.314286	1.305495
00:00:00.684	1.306227	1.311355	1.308425
00:00:00.684	1.334799	1.284982	1.298901
00:00:00.684	1.358242	1.254945	1.300366
00:00:00.686	1.352381	1.242491	1.296703
00:00:00.686	1.297436	1.280586	1.279121
00:00:00.686	1.236630	1.318681	1.290842
00:00:00.686	1.217582	1.310623	1.291575
00:00:00.686	1.247619	1.341392	1.295238
00:00:00.687	1.329670	1.374359	1.311355
00:00:00.687	1.346520	1.331136	1.300366
00:00:00.687	1.334799	1.314286	1.317949
00:00:00.688	1.312088	1.309158	1.317216
00:00:00.688	1.310623	1.311355	1.320879
00:00:00.688	1.303297	1.299634	1.313553
00:00:00.689	1.302564	1.265201	1.315018
00:00:00.689	1.325275	1.264469	1.315751
00:00:00.689	1.315018	1.265934	1.300366
00:00:00.690	1.295238	1.277656	1.309158
00:00:00.690	1.238095	1.288645	1.302564
00:00:00.691	1.276190	1.307692	1.290110
00:00:00.691	1.367033	1.339927	1.299634
00:00:00.691	1.413187	1.309158	1.290110
00:00:00.692	1.443956	1.303297	1.296703
00:00:00.692	1.406593	1.310623	1.298168
00:00:00.692	1.309890	1.312821	1.293040
00:00:00.693	1.241758	1.317216	1.310623
00:00:00.693	1.230769	1.295971	1.300366
00:00:00.693	1.244689	1.289377	1.304029
00:00:00.694	1.250549	1.278388	1.300366
00:00:00.694	1.263736	1.276923	1.310623
00:00:00.694	1.284982	1.265201	1.309158
00:00:00.695	1.323810	1.273260	1.321612
00:00:00.695	1.352381	1.290110	1.318681
00:00:00.696	1.350183	1.314286	1.313553
00:00:00.696	1.323077	1.325275	1.305495
00:00:00.696	1.231502	1.301832	1.298901
00:00:00.697	1.271795	1.289377	1.284249
00:00:00.697	1.323810	1.284982	1.286447
00:00:00.697	1.371429	1.289377	1.293773
00:00:00.698	1.363370	1.293040	1.286447
00:00:00.698	1.372161	1.296703	1.298901
00:00:00.698	1.322344	1.291575	1.300366
00:00:00.699	1.298901	1.289377	1.304762
00:00:00.699	1.350183	1.292308	1.305495
00:00:00.700	1.377289	1.302564	1.306960
00:00:00.700	1.315751	1.328938	1.312821
00:00:00.700	1.263004	1.384615	1.305495
00:00:00.701	1.236630	1.385348	1.307692
00:00:00.701	1.243956	1.326007	1.300366
00:00:00.701	1.246154	1.268132	1.279853
00:00:00.733	1.299634	1.295971	1.308425
00:00:00.734	1.295971	1.293040	1.321612
00:00:00.734	1.286447	1.276923	1.310623
00:00:00.735	1.273993	1.259341	1.295238
00:00:00.735	1.273993	1.287912	1.300366
00:00:00.735	1.307692	1.322344	1.306960
00:00:00.736	1.315018	1.342857	1.297436
00:00:00.736	1.345788	1.349451	1.306227
00:00:00.736	1.334066	1.315018	1.297436
00:00:00.737	1.328938	1.305495	1.307692
00:00:00.737	1.351648	1.316484	1.310623
00:00:00.737	1.367766	1.307692	1.309890
00:00:00.738	1.321612	1.288645	1.312088
00:00:00.738	1.285714	1.281319	1.323810
00:00:00.738	1.263736	1.257875	1.308425
00:00:00.739	1.301832	1.282051	1.314286
00:00:00.739	1.309890	1.282784	1.301832
00:00:00.740	1.337729	1.273993	1.300366
00:00:00.740	1.339927	1.276190	1.291575
00:00:00.740	1.333333	1.309158	1.293040
00:00:00.742	1.298901	1.354579	1.293773
00:00:00.742	1.272527	1.373626	1.300366
00:00:00.742	1.273993	1.352381	1.298168
00:00:00.744	1.318681	1.345055	1.294505
00:00:00.744	1.317216	1.339194	1.301832
00:00:00.744	1.308425	1.316484	1.306227
00:00:00.744	1.328205	1.276190	1.305495
00:00:00.744	1.317216	1.232967	1.311355
00:00:00.744	1.300366	1.230037	1.300366
00:00:00.744	1.310623	1.270330	1.308425
00:00:00.744	1.318681	1.274725	1.307692
00:00:00.747	1.317949	1.273993	1.308425
00:00:00.747	1.264469	1.284249	1.305495
00:00:00.747	1.238828	1.298901	1.307692
00:00:00.747	1.293773	1.320147	1.306227
00:00:00.747	1.361905	1.354579	1.304029
00:00:00.747	1.413919	1.364103	1.299634
00:00:00.747	1.401465	1.385348	1.295238
00:00:00.747	1.347253	1.349451	1.294505
00:00:00.747	1.292308	1.278388	1.296703
00:00:00.748	1.262271	1.221245	1.296703
00:00:00.748	1.271795	1.197802	1.309158
00:00:00.749	1.294505	1.241758	1.308425
00:00:00.749	1.298901	1.284982	1.305495
00:00:00.749	1.302564	1.323810	1.311355
00:00:00.750	1.315018	1.384615	1.312088
00:00:00.750	1.301099	1.389011	1.306227
00:00:00.750	1.309890	1.376557	1.309890
00:00:00.751	1.317216	1.336264	1.312088
00:00:00.751	1.314286	1.301832	1.309890
00:00:00.783	1.298168	1.286447	1.298168
00:00:00.784	1.285714	1.309158	1.293773
00:00:00.784	1.296703	1.353114	1.291575
00:00:00.784	1.304029	1.360440	1.298901
00:00:00.785	1.324542	1.328938	1.302564
00:00:00.785	1.315751	1.243223	1.288645
00:00:00.785	1.308425	1.211722	1.287912
00:00:00.786	1.309890	1.231502	1.296703
00:00:00.786	1.293040	1.257143	1.290842
00:00:00.786	1.313553	1.298901	1.306960
00:00:00.787	1.309158	1.294505	1.301832
00:00:00.787	1.308425	1.314286	1.306227
00:00:00.788	1.313553	1.320879	1.313553
00:00:00.788	1.287179	1.282051	1.305495
00:00:00.788	1.298901	1.296703	1.316484
00:00:00.789	1.295971	1.291575	1.310623
00:00:00.789	1.303297	1.304762	1.310623
00:00:00.789	1.309890	1.305495	1.306960
00:00:00.790	1.309158	1.308425	1.302564
00:00:00.790	1.318681	1.312088	1.295238
00:00:00.790	1.328938	1.360440	1.293040
00:00:00.791	1.326740	1.359707	1.295238
00:00:00.791	1.320147	1.345055	1.295971
00:00:00.791	1.309158	1.320879	1.296703
00:00:00.792	1.299634	1.293040	1.294505
00:00:00.792	1.328205	1.310623	1.311355
00:00:00.793	1.329670	1.305495	1.298901
00:00:00.793	1.326007	1.292308	1.305495
00:00:00.793	1.266667	1.273993	1.312088
00:00:00.794	1.262271	1.268864	1.315018
00:00:00.794	1.323810	1.290842	1.320147
00:00:00.794	1.360440	1.255678	1.309890
00:00:00.795	1.380952	1.263736	1.300366
00:00:00.795	1.380220	1.293040	1.307692
00:00:00.795	1.311355	1.306227	1.311355
00:00:00.796	1.208059	1.306227	1.299634
00:00:00.796	1.175824	1.319414	1.292308
00:00:00.796	1.211722	1.334066	1.292308
00:00:00.797	1.282784	1.336996	1.283516
00:00:00.797	1.359707	1.363370	1.293773
00:00:00.798	1.359707	1.356777	1.296703
00:00:00.798	1.323810	1.360440	1.300366
00:00:00.798	1.279853	1.336264	1.296703
00:00:00.799	1.302564	1.304762	1.309158
00:00:00.799	1.331136	1.310623	1.309158
00:00:00.799	1.323077	1.279121	1.307692
00:00:00.800	1.325275	1.268132	1.318681
00:00:00.800	1.328205	1.271062	1.309158
00:00:00.800	1.306960	1.270330	1.317216
00:00:00.801	1.312821	1.287179	1.316484
00:00:00.833	1.314286	1.282051	1.312088
00:00:00.833	1.313553	1.265934	1.300366
00:00:00.834	1.309890	1.268864	1.292308
00:00:00.835	1.298168	1.278388	1.289377
00:00:00.835	1.312821	1.297436	1.295971
00:00:00.835	1.275458	1.312088	1.296703
00:00:00.835	1.259341	1.321612	1.293773
00:00:00.835	1.285714	1.335531	1.290842
00:00:00.837	1.326740	1.336996	1.293773
00:00:00.837	1.370696	1.333333	1.301099
00:00:00.838	1.384615	1.326740	1.308425
00:00:00.838	1.379487	1.319414	1.306227
00:00:00.838	1.331136	1.314286	1.303297
00:00:00.838	1.300366	1.342125	1.317216
00:00:00.838	1.260806	1.469597	1.321612
00:00:00.838	1.268864	1.446154	1.316484
00:00:00.840	1.290110	1.306960	1.299634
00:00:00.840	1.291575	1.191209	1.303297
00:00:00.840	1.295238	1.156777	1.301832
00:00:00.841	1.290110	1.154579	1.285714
00:00:00.844	1.309158	1.187546	1.295971
00:00:00.844	1.312821	1.219048	1.291575
00:00:00.844	1.304029	1.282051	1.290842
00:00:00.844	1.309158	1.365568	1.292308
00:00:00.844	1.303297	1.375824	1.293773
00:00:00.844	1.317216	1.345788	1.300366
00:00:00.844	1.321612	1.358242	1.317216
00:00:00.844	1.312088	1.345055	1.315018
00:00:00.844	1.315751	1.320147	1.315018
00:00:00.844	1.307692	1.286447	1.313553
00:00:00.844	1.307692	1.281319	1.322344
00:00:00.844	1.315018	1.299634	1.316484
00:00:00.844	1.298168	1.312821	1.308425
00:00:00.845	1.320879	1.301832	1.311355
00:00:00.846	1.315018	1.273993	1.299634
00:00:00.846	1.321612	1.279853	1.307692
00:00:00.846	1.307692	1.265934	1.301099
00:00:00.846	1.291575	1.309158	1.293040
00:00:00.847	1.299634	1.350916	1.287179
00:00:00.847	1.302564	1.367033	1.284249
00:00:00.847	1.323077	1.385348	1.298901
00:00:00.848	1.312088	1.372894	1.299634
00:00:00.848	1.319414	1.371429	1.309890
00:00:00.848	1.338462	1.334799	1.308425
00:00:00.849	1.328205	1.284982	1.298901
00:00:00.849	1.311355	1.310623	1.318681
00:00:00.849	1.301832	1.286447	1.307692
00:00:00.850	1.306227	1.275458	1.317949
00:00:00.850	1.308425	1.265201	1.312088
00:00:00.851	1.300366	1.274725	1.309158
00:00:00.883	1.303297	1.277656	1.307692
00:00:00.883	1.304762	1.272527	1.304762
00:00:00.883	1.304762	1.268132	1.298168
00:00:00.884	1.312821	1.283516	1.298901
00:00:00.884	1.312088	1.291575	1.278388
00:00:00.884	1.319414	1.319414	1.290110
00:00:00.885	1.312088	1.342125	1.282051
00:00:00.885	1.304762	1.342857	1.296703
00:00:00.886	1.306227	1.312088	1.298168
00:00:00.886	1.301832	1.280586	1.304029
00:00:00.886	1.308425	1.258608	1.312088
00:00:00.887	1.302564	1.277656	1.311355
00:00:00.887	1.302564	1.342125	1.315018
00:00:00.887	1.300366	1.391941	1.316484
00:00:00.888	1.290110	1.360440	1.304029
00:00:00.888	1.310623	1.342125	1.309890
00:00:00.888	1.326007	1.277656	1.297436
00:00:00.889	1.328205	1.268864	1.317216
00:00:00.889	1.310623	1.251282	1.306227
00:00:00.890	1.306227	1.241758	1.288645
00:00:00.890	1.309158	1.248352	1.295238
00:00:00.890	1.315018	1.274725	1.290110
00:00:00.891	1.305495	1.300366	1.298168
00:00:00.891	1.292308	1.322344	1.293040
00:00:00.891	1.306227	1.357509	1.295971
00:00:00.892	1.311355	1.369231	1.300366
00:00:00.893	1.326007	1.365568	1.313553
00:00:00.893	1.315018	1.305495	1.306960
00:00:00.893	1.320147	1.282784	1.307692
00:00:00.893	1.325275	1.267399	1.318681
00:00:00.893	1.323810	1.249817	1.319414
00:00:00.894	1.309890	1.268864	1.314286
00:00:00.894	1.306227	1.350916	1.316484
00:00:00.895	1.300366	1.398535	1.317216
00:00:00.895	1.302564	1.370696	1.311355
00:00:00.895	1.290110	1.329670	1.299634
00:00:00.896	1.297436	1.307692	1.303297
00:00:00.896	1.307692	1.276923	1.292308
00:00:00.896	1.335531	1.280586	1.300366
00:00:00.897	1.306227	1.268132	1.290842
00:00:00.897	1.305495	1.243223	1.293040
00:00:00.897	1.325275	1.286447	1.293773
00:00:00.898	1.341392	1.323077	1.309890
00:00:00.898	1.359707	1.319414	1.314286
00:00:00.898	1.355311	1.306960	1.304029
00:00:00.899	1.339927	1.309158	1.314286
00:00:00.899	1.298901	1.298168	1.315018
00:00:00.900	1.276923	1.295971	1.315751
00:00:00.900	1.256410	1.290842	1.300366
00:00:00.900	1.285714	1.310623	1.320147
00:00:00.936	1.295971	1.308425	1.316484
00:00:00.936	1.296703	1.309890	1.309890
00:00:00.936	1.300366	1.311355	1.292308
00:00:00.936	1.306960	1.338462	1.305495
00:00:00.936	1.317216	1.324542	1.287179
00:00:00.936	1.311355	1.301099	1.284982
00:00:00.936	1.312088	1.312088	1.289377
00:00:00.936	1.292308	1.323077	1.285714
00:00:00.936	1.319414	1.343590	1.293040
00:00:00.936	1.320147	1.335531	1.306227
00:00:00.936	1.315018	1.318681	1.306960
00:00:00.936	1.314286	1.305495	1.306227
00:00:00.939	1.300366	1.317949	1.313553
00:00:00.939	1.293773	1.346520	1.311355
00:00:00.939	1.286447	1.350183	1.315751
00:00:00.939	1.304762	1.311355	1.304029
00:00:00.939	1.312088	1.288645	1.309158
00:00:00.939	1.320879	1.286447	1.310623
00:00:00.939	1.317216	1.257143	1.305495
00:00:00.939	1.250549	1.263004	1.306227
00:00:00.941	1.256410	1.244689	1.301099
00:00:00.941	1.311355	1.241758	1.300366
00:00:00.941	1.383150	1.249817	1.298901
00:00:00.942	1.405861	1.232234	1.289377
00:00:00.942	1.380952	1.239560	1.287912
00:00:00.942	1.310623	1.260806	1.291575
00:00:00.942	1.241758	1.293040	1.299634
00:00:00.942	1.234432	1.329670	1.304029
00:00:00.942	1.281319	1.333333	1.311355
00:00:00.943	1.312821	1.328205	1.310623
00:00:00.943	1.332601	1.350916	1.320147
00:00:00.944	1.316484	1.347985	1.308425
00:00:00.944	1.318681	1.350183	1.317216
00:00:00.945	1.314286	1.326740	1.310623
00:00:00.945	1.320147	1.295238	1.319414
00:00:00.945	1.317216	1.276190	1.301832
00:00:00.945	1.324542	1.265934	1.304762
00:00:00.946	1.330403	1.276923	1.303297
00:00:00.946	1.308425	1.297436	1.296703
00:00:00.946	1.304762	1.357509	1.293040
00:00:00.947	1.318681	1.423443	1.307692
00:00:00.947	1.336996	1.405861	1.306960
00:00:00.947	1.336996	1.363370	1.304762
00:00:00.948	1.331136	1.322344	1.304029
00:00:00.948	1.324542	1.315751	1.309158
00:00:00.949	1.304762	1.298168	1.307692
00:00:00.949	1.295238	1.266667	1.306960
00:00:00.949	1.278388	1.228571	1.292308
00:00:00.950	1.287179	1.265201	1.313553
00:00:00.950	1.288645	1.263736	1.308425
00:00:00.982	1.276923	1.257143	1.302564
00:00:00.983	1.282784	1.293773	1.306960
00:00:00.983	1.293040	1.297436	1.291575
00:00:00.983	1.353846	1.297436	1.306227
00:00:00.984	1.353114	1.309158	1.287179
00:00:00.984	1.323810	1.331136	1.297436
00:00:00.984	1.317216	1.332601	1.297436
00:00:00.985	1.306227	1.319414	1.297436
00:00:00.985	1.293773	1.292308	1.300366
00:00:00.985	1.301832	1.300366	1.298901
00:00:00.986	1.314286	1.342857	1.315751
00:00:00.986	1.315018	1.372161	1.319414
00:00:00.986	1.311355	1.400733	1.316484
00:00:00.987	1.316484	1.373626	1.316484
00:00:00.987	1.303297	1.283516	1.307692
00:00:00.988	1.312088	1.210989	1.313553
00:00:00.988	1.308425	1.175092	1.304762
00:00:00.988	1.304029	1.199267	1.301832
00:00:00.989	1.307692	1.263736	1.307692
00:00:00.989	1.295971	1.326007	1.293040
00:00:00.989	1.310623	1.328938	1.297436
00:00:00.990	1.305495	1.315018	1.289377
00:00:00.990	1.314286	1.293040	1.295238
00:00:00.990	1.316484	1.277656	1.299634
00:00:00.991	1.302564	1.288645	1.298168
00:00:00.991	1.315751	1.300366	1.300366
00:00:00.991	1.309158	1.288645	1.295238
00:00:00.992	1.309890	1.311355	1.306227
00:00:00.992	1.269597	1.331868	1.307692
00:00:00.993	1.288645	1.339927	1.315751
00:00:00.993	1.319414	1.328938	1.319414
00:00:00.993	1.349451	1.289377	1.320879
00:00:00.994	1.378022	1.294505	1.322344
00:00:00.994	1.361172	1.304762	1.297436
00:00:00.994	1.336264	1.342125	1.306227
