timestamp	ch1	ch2	ch3
00:00:00.000	1.304762	1.316484	1.308425
00:00:00.000	1.302564	1.331136	1.305495
00:00:00.001	1.306227	1.328938	1.307692
00:00:00.001	1.317216	1.320879	1.306227
00:00:00.001	1.306227	1.315018	1.306227
00:00:00.001	1.303297	1.317216	1.312088
00:00:00.002	1.312088	1.320879	1.308425
00:00:00.002	1.310623	1.317216	1.306227
00:00:00.003	1.305495	1.308425	1.306960
00:00:00.003	1.315018	1.301832	1.306227
00:00:00.003	1.307692	1.293040	1.300366
00:00:00.004	1.318681	1.302564	1.306227
00:00:00.004	1.322344	1.287179	1.297436
00:00:00.004	1.313553	1.290842	1.309158
00:00:00.005	1.311355	1.299634	1.303297
00:00:00.005	1.307692	1.302564	1.303297
00:00:00.005	1.309158	1.286447	1.295971
00:00:00.006	1.331868	1.296703	1.306227
00:00:00.006	1.320147	1.304029	1.303297
00:00:00.007	1.315751	1.320147	1.308425
00:00:00.007	1.295238	1.312821	1.300366
00:00:00.007	1.302564	1.311355	1.306960
00:00:00.009	1.294505	1.301832	1.312821
00:00:00.009	1.279121	1.295238	1.303297
00:00:00.009	1.287912	1.320147	1.312088
00:00:00.011	1.291575	1.312088	1.301832
00:00:00.011	1.309890	1.318681	1.304762
00:00:00.011	1.309890	1.323810	1.307692
00:00:00.011	1.303297	1.313553	1.295238
00:00:00.011	1.321612	1.294505	1.293773
00:00:00.011	1.336264	1.303297	1.308425
00:00:00.012	1.328938	1.298901	1.307692
00:00:00.012	1.319414	1.301099	1.304762
00:00:00.012	1.326740	1.306960	1.312088
00:00:00.012	1.315751	1.284982	1.298168
00:00:00.012	1.306960	1.297436	1.308425
00:00:00.016	1.303297	1.307692	1.310623
00:00:00.016	1.302564	1.312088	1.297436
00:00:00.016	1.290842	1.317216	1.300366
00:00:00.016	1.295971	1.309890	1.289377
00:00:00.016	1.309158	1.314286	1.295971
00:00:00.016	1.309890	1.323077	1.298168
00:00:00.016	1.277656	1.301832	1.293773
00:00:00.016	1.296703	1.295238	1.296703
00:00:00.016	1.300366	1.278388	1.298901
00:00:00.016	1.307692	1.273993	1.315018
00:00:00.016	1.314286	1.271795	1.307692
00:00:00.017	1.308425	1.273260	1.302564
00:00:00.017	1.364103	1.290842	1.309158
00:00:00.017	1.375824	1.330403	1.314286
00:00:00.049	1.250549	1.326740	1.300366
00:00:00.050	1.367766	1.315018	1.309158
00:00:00.050	1.364835	1.304029	1.293040
00:00:00.051	1.309158	1.318681	1.308425
00:00:00.051	1.270330	1.320879	1.298901
00:00:00.051	1.279121	1.326740	1.300366
00:00:00.052	1.263736	1.320879	1.306227
00:00:00.052	1.246886	1.320879	1.308425
00:00:00.052	1.288645	1.317216	1.300366
00:00:00.053	1.304762	1.303297	1.300366
00:00:00.053	1.320879	1.301099	1.302564
00:00:00.053	1.312821	1.290842	1.298168
00:00:00.054	1.331136	1.293040	1.312821
00:00:00.054	1.320147	1.278388	1.300366
00:00:00.054	1.334066	1.293040	1.315018
00:00:00.055	1.320879	1.289377	1.300366
00:00:00.055	1.315751	1.290842	1.300366
00:00:00.056	1.312821	1.303297	1.304762
00:00:00.056	1.306960	1.313553	1.311355
00:00:00.056	1.300366	1.309158	1.304762
00:00:00.057	1.298901	1.326740	1.306227
00:00:00.057	1.292308	1.322344	1.304029
00:00:00.057	1.306960	1.312088	1.304029
00:00:00.058	1.300366	1.315751	1.303297
00:00:00.058	1.300366	1.310623	1.308425
00:00:00.058	1.307692	1.298168	1.306960
00:00:00.059	1.306960	1.289377	1.305495
00:00:00.059	1.308425	1.282784	1.304029
00:00:00.059	1.309158	1.275458	1.304029
00:00:00.060	1.312821	1.263736	1.302564
00:00:00.060	1.320147	1.283516	1.307692
00:00:00.061	1.312088	1.306960	1.304762
00:00:00.061	1.327473	1.327473	1.302564
00:00:00.061	1.340659	1.342857	1.312821
00:00:00.062	1.327473	1.342125	1.307692
00:00:00.062	1.326740	1.345788	1.314286
00:00:00.062	1.315018	1.337729	1.312821
00:00:00.063	1.301099	1.321612	1.307692
00:00:00.063	1.299634	1.317216	1.300366
00:00:00.063	1.295971	1.311355	1.302564
00:00:00.064	1.285714	1.311355	1.307692
00:00:00.064	1.300366	1.295971	1.292308
00:00:00.064	1.312821	1.305495	1.307692
00:00:00.065	1.317949	1.306227	1.306960
00:00:00.065	1.312821	1.286447	1.290842
00:00:00.066	1.309158	1.291575	1.304029
00:00:00.066	1.317216	1.295238	1.313553
00:00:00.066	1.320879	1.295971	1.310623
00:00:00.067	1.317949	1.285714	1.306227
00:00:00.067	1.309158	1.287912	1.308425
00:00:00.099	1.312088	1.304762	1.303297
00:00:00.100	1.309158	1.301832	1.290110
00:00:00.100	1.299634	1.300366	1.305495
00:00:00.100	1.306227	1.315018	1.305495
00:00:00.101	1.308425	1.331136	1.308425
00:00:00.101	1.309158	1.344322	1.305495
00:00:00.101	1.296703	1.328938	1.297436
00:00:00.102	1.306960	1.334066	1.306227
00:00:00.103	1.303297	1.304762	1.297436
00:00:00.103	1.312088	1.291575	1.308425
00:00:00.103	1.313553	1.276923	1.303297
00:00:00.103	1.320147	1.291575	1.311355
00:00:00.103	1.309158	1.295238	1.300366
00:00:00.105	1.313553	1.291575	1.290842
00:00:00.105	1.322344	1.306227	1.311355
00:00:00.108	1.314286	1.298901	1.311355
00:00:00.108	1.315751	1.297436	1.306227
00:00:00.108	1.318681	1.297436	1.311355
00:00:00.108	1.309158	1.293040	1.299634
00:00:00.108	1.304029	1.309158	1.309158
00:00:00.108	1.306227	1.330403	1.304762
00:00:00.108	1.293040	1.325275	1.292308
00:00:00.108	1.309890	1.336996	1.312088
00:00:00.108	1.296703	1.316484	1.292308
00:00:00.108	1.305495	1.327473	1.309158
00:00:00.108	1.309158	1.312821	1.306960
00:00:00.108	1.304762	1.267399	1.306227
00:00:00.112	1.318681	1.276190	1.310623
00:00:00.112	1.308425	1.296703	1.304029
00:00:00.112	1.320879	1.304762	1.309890
00:00:00.112	1.326007	1.294505	1.304029
00:00:00.112	1.310623	1.302564	1.302564
00:00:00.112	1.321612	1.324542	1.305495
00:00:00.112	1.315018	1.304029	1.289377
00:00:00.112	1.314286	1.307692	1.306960
00:00:00.112	1.304029	1.306960	1.315751
00:00:00.112	1.285714	1.315751	1.311355
00:00:00.112	1.297436	1.298168	1.300366
00:00:00.113	1.305495	1.303297	1.309158
00:00:00.113	1.295238	1.294505	1.300366
00:00:00.113	1.300366	1.309158	1.300366
00:00:00.114	1.302564	1.314286	1.300366
00:00:00.114	1.311355	1.307692	1.305495
00:00:00.115	1.312088	1.309158	1.295971
00:00:00.115	1.312088	1.319414	1.300366
00:00:00.115	1.329670	1.341392	1.307692
00:00:00.116	1.335531	1.328938	1.315751
00:00:00.116	1.328938	1.273993	1.327473
00:00:00.116	1.330403	1.263004	1.300366
00:00:00.117	1.325275	1.314286	1.312821
00:00:00.149	1.317949	1.342125	1.300366
00:00:00.149	1.310623	1.343590	1.303297
00:00:00.150	1.306960	1.320147	1.304762
00:00:00.150	1.292308	1.305495	1.294505
00:00:00.150	1.299634	1.320879	1.306227
00:00:00.151	1.297436	1.294505	1.300366
00:00:00.151	1.293773	1.298901	1.308425
00:00:00.151	1.302564	1.310623	1.306960
00:00:00.152	1.295238	1.292308	1.291575
00:00:00.152	1.311355	1.301832	1.315018
00:00:00.152	1.314286	1.287912	1.309158
00:00:00.153	1.317216	1.290110	1.305495
00:00:00.153	1.319414	1.293773	1.306227
00:00:00.154	1.327473	1.299634	1.309158
00:00:00.154	1.325275	1.299634	1.306960
00:00:00.154	1.328938	1.306227	1.298901
00:00:00.155	1.320147	1.312088	1.300366
00:00:00.155	1.315018	1.315751	1.297436
00:00:00.155	1.314286	1.315018	1.295971
00:00:00.156	1.312088	1.327473	1.320879
00:00:00.156	1.304762	1.324542	1.312821
00:00:00.156	1.285714	1.312821	1.295971
00:00:00.158	1.298168	1.313553	1.295971
00:00:00.158	1.295971	1.301832	1.298168
00:00:00.158	1.302564	1.326740	1.305495
00:00:00.158	1.309890	1.330403	1.300366
00:00:00.158	1.311355	1.300366	1.300366
00:00:00.159	1.302564	1.263736	1.297436
00:00:00.159	1.315018	1.274725	1.312821
00:00:00.159	1.320147	1.290842	1.315018
00:00:00.160	1.319414	1.295971	1.311355
00:00:00.160	1.322344	1.298168	1.306227
00:00:00.160	1.320147	1.309158	1.309890
00:00:00.161	1.320147	1.310623	1.307692
00:00:00.161	1.319414	1.304029	1.302564
00:00:00.161	1.316484	1.311355	1.313553
00:00:00.162	1.306227	1.310623	1.303297
00:00:00.162	1.300366	1.318681	1.305495
00:00:00.163	1.297436	1.316484	1.296703
00:00:00.163	1.297436	1.323810	1.294505
00:00:00.163	1.301832	1.320147	1.297436
00:00:00.164	1.304762	1.317216	1.306227
00:00:00.164	1.301832	1.308425	1.295238
00:00:00.164	1.312821	1.326007	1.303297
00:00:00.165	1.312088	1.323077	1.300366
00:00:00.165	1.312821	1.299634	1.300366
00:00:00.165	1.318681	1.280586	1.306227
00:00:00.166	1.301832	1.266667	1.296703
00:00:00.166	1.320147	1.251282	1.303297
00:00:00.166	1.326007	1.253480	1.309158
00:00:00.199	1.336996	1.310623	1.311355
00:00:00.199	1.328938	1.359707	1.315751
00:00:00.199	1.312821	1.355311	1.306960
00:00:00.201	1.294505	1.326740	1.310623
00:00:00.201	1.297436	1.302564	1.299634
00:00:00.201	1.287912	1.307692	1.303297
00:00:00.202	1.308425	1.317216	1.312088
00:00:00.202	1.301832	1.281319	1.304762
00:00:00.202	1.300366	1.285714	1.305495
00:00:00.203	1.309158	1.304762	1.306227
00:00:00.203	1.309158	1.317216	1.307692
00:00:00.204	1.314286	1.311355	1.303297
00:00:00.204	1.316484	1.308425	1.313553
00:00:00.204	1.312821	1.295238	1.306227
00:00:00.204	1.328938	1.309158	1.315018
00:00:00.204	1.314286	1.270330	1.296703
00:00:00.204	1.308425	1.269597	1.305495
00:00:00.208	1.306227	1.304762	1.299634
00:00:00.208	1.303297	1.320879	1.296703
00:00:00.208	1.308425	1.320147	1.302564
00:00:00.208	1.289377	1.315018	1.295238
00:00:00.208	1.298168	1.334799	1.300366
00:00:00.208	1.294505	1.324542	1.289377
00:00:00.208	1.300366	1.323077	1.304029
00:00:00.208	1.291575	1.284982	1.300366
00:00:00.208	1.306960	1.281319	1.307692
00:00:00.208	1.315018	1.284249	1.308425
00:00:00.208	1.313553	1.294505	1.302564
00:00:00.209	1.315018	1.300366	1.302564
00:00:00.210	1.320147	1.293773	1.305495
00:00:00.210	1.330403	1.295971	1.309890
00:00:00.210	1.323077	1.309158	1.302564
00:00:00.210	1.327473	1.326740	1.316484
00:00:00.210	1.314286	1.315018	1.309158
00:00:00.211	1.313553	1.315018	1.307692
00:00:00.211	1.312088	1.320879	1.306227
00:00:00.212	1.300366	1.310623	1.295238
00:00:00.212	1.307692	1.319414	1.306960
00:00:00.212	1.304029	1.334799	1.310623
00:00:00.213	1.304762	1.341392	1.304029
00:00:00.213	1.298901	1.336264	1.303297
00:00:00.213	1.290842	1.320879	1.299634
00:00:00.214	1.309158	1.315751	1.297436
00:00:00.214	1.312821	1.284982	1.303297
00:00:00.214	1.306227	1.254945	1.305495
00:00:00.215	1.322344	1.279853	1.304762
00:00:00.215	1.320879	1.287179	1.299634
00:00:00.215	1.325275	1.313553	1.307692
00:00:00.216	1.317949	1.309890	1.309158
00:00:00.216	1.312821	1.295971	1.291575
00:00:00.248	1.320147	1.299634	1.311355
00:00:00.249	1.304762	1.286447	1.302564
00:00:00.249	1.308425	1.306960	1.304762
00:00:00.249	1.300366	1.298901	1.298901
00:00:00.250	1.297436	1.291575	1.298901
00:00:00.250	1.300366	1.309890	1.298168
00:00:00.251	1.292308	1.317949	1.304762
00:00:00.251	1.300366	1.328205	1.300366
00:00:00.251	1.304029	1.326740	1.300366
00:00:00.252	1.306227	1.316484	1.304029
00:00:00.252	1.306960	1.301099	1.300366
00:00:00.252	1.316484	1.285714	1.309890
00:00:00.253	1.320147	1.284249	1.304029
00:00:00.253	1.323810	1.288645	1.308425
00:00:00.253	1.318681	1.301099	1.304762
00:00:00.254	1.323810	1.313553	1.303297
00:00:00.254	1.320879	1.309158	1.306960
00:00:00.254	1.316484	1.301099	1.299634
00:00:00.255	1.303297	1.301832	1.297436
00:00:00.255	1.306960	1.311355	1.304029
00:00:00.256	1.295238	1.309158	1.294505
00:00:00.256	1.309890	1.337729	1.305495
00:00:00.256	1.294505	1.333333	1.310623
00:00:00.257	1.302564	1.320147	1.300366
00:00:00.257	1.303297	1.310623	1.304762
00:00:00.257	1.309158	1.304029	1.302564
00:00:00.258	1.309158	1.282784	1.295971
00:00:00.258	1.317949	1.293040	1.306960
00:00:00.258	1.317949	1.301832	1.306960
00:00:00.259	1.317949	1.312821	1.302564
00:00:00.259	1.328205	1.323077	1.309890
00:00:00.259	1.320879	1.312821	1.312821
00:00:00.260	1.321612	1.304029	1.304029
00:00:00.260	1.320879	1.294505	1.311355
00:00:00.261	1.314286	1.297436	1.307692
00:00:00.261	1.309158	1.305495	1.304029
00:00:00.262	1.306227	1.299634	1.305495
00:00:00.262	1.289377	1.287912	1.303297
00:00:00.262	1.306227	1.295238	1.309158
00:00:00.262	1.301099	1.308425	1.306227
00:00:00.264	1.300366	1.320147	1.304029
00:00:00.264	1.306227	1.326740	1.304029
00:00:00.264	1.300366	1.330403	1.300366
00:00:00.264	1.318681	1.357509	1.312821
00:00:00.264	1.315018	1.328205	1.310623
00:00:00.264	1.316484	1.295238	1.300366
00:00:00.265	1.312088	1.279121	1.292308
00:00:00.265	1.323810	1.306227	1.307692
00:00:00.267	1.317216	1.301832	1.297436
00:00:00.267	1.319414	1.297436	1.304762
00:00:00.299	1.315018	1.283516	1.298901
00:00:00.299	1.313553	1.263736	1.307692
00:00:00.299	1.308425	1.239560	1.290842
00:00:00.299	1.308425	1.276923	1.306227
00:00:00.304	1.298168	1.326007	1.306227
00:00:00.304	1.304029	1.353114	1.304029
00:00:00.304	1.305495	1.353114	1.300366
00:00:00.304	1.306960	1.339927	1.310623
00:00:00.304	1.305495	1.323810	1.306960
00:00:00.304	1.296703	1.306227	1.304029
00:00:00.304	1.301099	1.297436	1.300366
00:00:00.304	1.314286	1.284249	1.302564
00:00:00.304	1.319414	1.298168	1.312821
00:00:00.304	1.317216	1.294505	1.303297
00:00:00.304	1.312821	1.287179	1.298901
00:00:00.304	1.325275	1.304029	1.306227
00:00:00.304	1.310623	1.302564	1.299634
00:00:00.304	1.316484	1.312088	1.304029
00:00:00.305	1.308425	1.308425	1.300366
00:00:00.305	1.303297	1.306227	1.295971
00:00:00.305	1.306960	1.323810	1.307692
00:00:00.306	1.302564	1.325275	1.309890
00:00:00.306	1.297436	1.318681	1.303297
00:00:00.306	1.302564	1.312821	1.304762
00:00:00.307	1.292308	1.297436	1.293040
00:00:00.307	1.305495	1.310623	1.310623
00:00:00.307	1.309158	1.318681	1.305495
00:00:00.308	1.313553	1.314286	1.309890
00:00:00.308	1.318681	1.306960	1.306227
00:00:00.308	1.311355	1.289377	1.300366
00:00:00.309	1.317949	1.268864	1.312088
00:00:00.309	1.314286	1.270330	1.309158
00:00:00.310	1.319414	1.291575	1.308425
00:00:00.310	1.319414	1.301832	1.310623
00:00:00.310	1.320147	1.304762	1.306227
00:00:00.311	1.312821	1.323810	1.306227
00:00:00.311	1.311355	1.343590	1.310623
00:00:00.311	1.304762	1.330403	1.302564
00:00:00.312	1.309158	1.339194	1.309890
00:00:00.312	1.297436	1.323077	1.297436
00:00:00.312	1.304029	1.324542	1.308425
00:00:00.313	1.305495	1.314286	1.304029
00:00:00.313	1.306227	1.309158	1.304029
00:00:00.314	1.315018	1.301099	1.309158
00:00:00.314	1.312821	1.292308	1.303297
00:00:00.314	1.318681	1.294505	1.309890
00:00:00.315	1.319414	1.295238	1.306227
00:00:00.315	1.322344	1.296703	1.306227
00:00:00.315	1.310623	1.295971	1.300366
00:00:00.316	1.318681	1.299634	1.306227
00:00:00.348	1.316484	1.310623	1.309890
00:00:00.348	1.311355	1.298901	1.295238
00:00:00.349	1.308425	1.306960	1.306960
00:00:00.349	1.315018	1.315751	1.307692
00:00:00.349	1.301832	1.305495	1.287179
00:00:00.350	1.299634	1.311355	1.310623
00:00:00.350	1.298901	1.295238	1.292308
00:00:00.350	1.305495	1.316484	1.309890
00:00:00.351	1.304762	1.307692	1.303297
00:00:00.351	1.298901	1.314286	1.296703
00:00:00.351	1.314286	1.320879	1.309890
00:00:00.352	1.312088	1.312088	1.303297
00:00:00.352	1.315751	1.304762	1.307692
00:00:00.352	1.319414	1.295238	1.304029
00:00:00.353	1.314286	1.295971	1.313553
00:00:00.353	1.320879	1.296703	1.311355
00:00:00.354	1.309890	1.291575	1.303297
00:00:00.354	1.315018	1.305495	1.301832
00:00:00.354	1.312821	1.317949	1.306960
00:00:00.355	1.309158	1.331868	1.309158
00:00:00.355	1.307692	1.336996	1.306227
00:00:00.355	1.308425	1.335531	1.301832
00:00:00.356	1.299634	1.317949	1.303297
00:00:00.356	1.311355	1.298168	1.306960
00:00:00.356	1.306227	1.304029	1.306960
00:00:00.357	1.304029	1.285714	1.314286
00:00:00.357	1.295971	1.245421	1.301832
00:00:00.358	1.312088	1.260073	1.305495
00:00:00.358	1.309890	1.274725	1.305495
00:00:00.358	1.323077	1.286447	1.306227
00:00:00.360	1.325275	1.327473	1.310623
00:00:00.360	1.320147	1.349451	1.300366
00:00:00.360	1.309890	1.345055	1.302564
00:00:00.360	1.317216	1.315751	1.304029
00:00:00.360	1.315018	1.278388	1.300366
00:00:00.360	1.312088	1.293773	1.312088
00:00:00.363	1.303297	1.298168	1.295971
00:00:00.363	1.311355	1.323810	1.309158
00:00:00.363	1.306960	1.322344	1.307692
00:00:00.363	1.305495	1.317949	1.302564
00:00:00.363	1.301099	1.320879	1.306227
00:00:00.363	1.295238	1.317949	1.308425
00:00:00.363	1.309158	1.316484	1.305495
00:00:00.363	1.316484	1.320879	1.309158
00:00:00.364	1.298901	1.309890	1.304762
00:00:00.368	1.314286	1.322344	1.308425
00:00:00.368	1.319414	1.315018	1.306227
00:00:00.368	1.315018	1.300366	1.309890
00:00:00.368	1.320879	1.294505	1.311355
00:00:00.368	1.322344	1.286447	1.309890
