timestamp	ch1	ch2	ch3
00:00:00.000	1.311355	1.305495	1.306960
00:00:00.000	1.315018	1.312821	1.312088
00:00:00.000	1.323077	1.318681	1.314286
00:00:00.001	1.317216	1.312088	1.309158
00:00:00.001	1.322344	1.292308	1.309890
00:00:00.001	1.299634	1.273993	1.295971
00:00:00.002	1.314286	1.258608	1.305495
00:00:00.002	1.301832	1.273260	1.296703
00:00:00.003	1.300366	1.309890	1.290842
00:00:00.003	1.309158	1.347253	1.311355
00:00:00.003	1.325275	1.339927	1.310623
00:00:00.004	1.329670	1.320147	1.312088
00:00:00.004	1.313553	1.320147	1.309158
00:00:00.004	1.309890	1.331136	1.311355
00:00:00.005	1.306960	1.322344	1.306227
00:00:00.005	1.308425	1.340659	1.312088
00:00:00.005	1.307692	1.327473	1.307692
00:00:00.006	1.295971	1.291575	1.304762
00:00:00.006	1.308425	1.288645	1.298168
00:00:00.007	1.311355	1.257143	1.297436
00:00:00.007	1.316484	1.192674	1.310623
00:00:00.007	1.311355	1.252747	1.309890
00:00:00.008	1.300366	1.274725	1.300366
00:00:00.008	1.309158	1.297436	1.290110
00:00:00.008	1.318681	1.347253	1.306960
00:00:00.009	1.315751	1.357509	1.309890
00:00:00.009	1.310623	1.347253	1.289377
00:00:00.009	1.315751	1.394139	1.308425
00:00:00.010	1.313553	1.361905	1.312088
00:00:00.010	1.309158	1.361905	1.306227
00:00:00.010	1.303297	1.316484	1.304762
00:00:00.011	1.308425	1.290110	1.307692
00:00:00.011	1.300366	1.261538	1.300366
00:00:00.012	1.308425	1.278388	1.315751
00:00:00.012	1.304029	1.284249	1.298901
00:00:00.012	1.312821	1.298901	1.305495
00:00:00.013	1.304029	1.289377	1.298901
00:00:00.013	1.318681	1.293040	1.312088
00:00:00.013	1.319414	1.280586	1.305495
00:00:00.014	1.315751	1.279853	1.303297
00:00:00.014	1.312821	1.279121	1.304029
00:00:00.014	1.338462	1.295238	1.315751
00:00:00.015	1.350916	1.308425	1.307692
00:00:00.015	1.340659	1.303297	1.300366
00:00:00.015	1.324542	1.310623	1.300366
00:00:00.016	1.312088	1.321612	1.307692
00:00:00.017	1.304029	1.321612	1.309158
00:00:00.017	1.262271	1.321612	1.317216
00:00:00.017	1.193407	1.331136	1.304762
00:00:00.017	1.267399	1.353114	1.292308
00:00:00.049	1.310623	1.373626	1.304762
00:00:00.050	1.329670	1.367033	1.306960
00:00:00.050	1.324542	1.345788	1.307692
00:00:00.051	1.329670	1.309158	1.304762
00:00:00.051	1.327473	1.256410	1.303297
00:00:00.051	1.324542	1.205128	1.306227
00:00:00.052	1.327473	1.212454	1.315018
00:00:00.052	1.318681	1.240293	1.319414
00:00:00.052	1.315018	1.252015	1.295971
00:00:00.053	1.323810	1.287912	1.313553
00:00:00.053	1.309890	1.304029	1.312088
00:00:00.053	1.304762	1.312821	1.300366
00:00:00.054	1.302564	1.317216	1.294505
00:00:00.054	1.302564	1.331868	1.295971
00:00:00.054	1.304029	1.337729	1.306227
00:00:00.055	1.310623	1.334799	1.313553
00:00:00.055	1.310623	1.319414	1.304762
00:00:00.058	1.308425	1.320147	1.306227
00:00:00.058	1.310623	1.334066	1.304762
00:00:00.058	1.317949	1.328938	1.311355
00:00:00.058	1.316484	1.327473	1.303297
00:00:00.058	1.323810	1.318681	1.306227
00:00:00.058	1.322344	1.285714	1.304762
00:00:00.059	1.319414	1.287912	1.301832
00:00:00.059	1.317949	1.304029	1.302564
00:00:00.059	1.315018	1.314286	1.302564
00:00:00.060	1.311355	1.323810	1.309890
00:00:00.060	1.309158	1.335531	1.302564
00:00:00.060	1.308425	1.354579	1.309890
00:00:00.060	1.306960	1.342857	1.306227
00:00:00.060	1.309158	1.302564	1.307692
00:00:00.061	1.304029	1.271062	1.309890
00:00:00.061	1.312088	1.279121	1.306960
00:00:00.061	1.313553	1.276190	1.311355
00:00:00.064	1.314286	1.288645	1.305495
00:00:00.064	1.306227	1.284249	1.298168
00:00:00.064	1.317949	1.301832	1.315018
00:00:00.064	1.314286	1.300366	1.300366
00:00:00.064	1.314286	1.305495	1.294505
00:00:00.064	1.318681	1.309890	1.302564
00:00:00.064	1.320147	1.307692	1.304762
00:00:00.064	1.320879	1.311355	1.309158
00:00:00.064	1.309158	1.306960	1.293040
00:00:00.065	1.308425	1.304029	1.300366
00:00:00.065	1.311355	1.296703	1.308425
00:00:00.066	1.293040	1.293773	1.300366
00:00:00.066	1.308425	1.316484	1.300366
00:00:00.066	1.305495	1.315751	1.314286
00:00:00.067	1.295971	1.302564	1.300366
00:00:00.067	1.309890	1.333333	1.308425
00:00:00.099	1.306227	1.355311	1.297436
00:00:00.100	1.309158	1.349451	1.307692
00:00:00.100	1.312088	1.335531	1.306960
00:00:00.101	1.301099	1.300366	1.303297
00:00:00.101	1.319414	1.298901	1.313553
00:00:00.101	1.314286	1.276923	1.314286
00:00:00.101	1.315018	1.292308	1.306960
00:00:00.102	1.322344	1.342125	1.310623
00:00:00.102	1.315018	1.310623	1.304029
00:00:00.102	1.315751	1.273993	1.302564
00:00:00.103	1.303297	1.256410	1.307692
00:00:00.103	1.291575	1.250549	1.299634
00:00:00.103	1.314286	1.287179	1.315018
00:00:00.104	1.312088	1.317949	1.312821
00:00:00.104	1.307692	1.315751	1.311355
00:00:00.105	1.310623	1.331868	1.311355
00:00:00.105	1.308425	1.376557	1.308425
00:00:00.105	1.314286	1.363370	1.312821
00:00:00.106	1.308425	1.353114	1.306960
00:00:00.106	1.307692	1.317216	1.298901
00:00:00.106	1.318681	1.297436	1.305495
00:00:00.107	1.308425	1.275458	1.298901
00:00:00.107	1.317949	1.270330	1.304762
00:00:00.107	1.317216	1.264469	1.306960
00:00:00.108	1.312088	1.271795	1.303297
00:00:00.108	1.315018	1.297436	1.304762
00:00:00.108	1.309158	1.265934	1.293773
00:00:00.109	1.313553	1.304029	1.309890
00:00:00.109	1.312088	1.323077	1.315018
00:00:00.110	1.308425	1.320147	1.310623
00:00:00.110	1.310623	1.338462	1.304762
00:00:00.110	1.309158	1.352381	1.313553
00:00:00.111	1.293773	1.348718	1.297436
00:00:00.111	1.312088	1.353846	1.312088
00:00:00.111	1.309158	1.318681	1.298901
00:00:00.112	1.304029	1.313553	1.304762
00:00:00.112	1.312821	1.326740	1.298168
00:00:00.112	1.312821	1.312088	1.308425
00:00:00.113	1.315751	1.299634	1.300366
00:00:00.113	1.314286	1.296703	1.312088
00:00:00.113	1.317216	1.283516	1.303297
00:00:00.114	1.319414	1.238095	1.309158
00:00:00.114	1.321612	1.206593	1.312821
00:00:00.115	1.317949	1.268864	1.310623
00:00:00.115	1.309158	1.326740	1.304029
00:00:00.115	1.299634	1.339194	1.298168
00:00:00.116	1.306960	1.338462	1.296703
00:00:00.116	1.302564	1.334799	1.296703
00:00:00.116	1.300366	1.337729	1.299634
00:00:00.117	1.306960	1.342857	1.303297
00:00:00.149	1.295238	1.335531	1.307692
00:00:00.149	1.287912	1.320879	1.299634
00:00:00.150	1.312088	1.310623	1.298168
00:00:00.150	1.319414	1.315018	1.309890
00:00:00.150	1.312088	1.284982	1.296703
00:00:00.151	1.323077	1.292308	1.312088
00:00:00.151	1.320147	1.300366	1.309158
00:00:00.151	1.309158	1.293773	1.300366
00:00:00.152	1.322344	1.298901	1.304762
00:00:00.153	1.312088	1.296703	1.298901
00:00:00.155	1.314286	1.308425	1.307692
00:00:00.155	1.307692	1.306227	1.304029
00:00:00.155	1.300366	1.299634	1.306227
00:00:00.155	1.293773	1.309158	1.293040
00:00:00.155	1.301099	1.335531	1.304029
00:00:00.155	1.297436	1.325275	1.303297
00:00:00.155	1.301832	1.312088	1.303297
00:00:00.156	1.300366	1.326007	1.306960
00:00:00.156	1.311355	1.327473	1.309158
00:00:00.156	1.316484	1.300366	1.296703
00:00:00.156	1.323810	1.303297	1.312821
00:00:00.156	1.320147	1.299634	1.306960
00:00:00.157	1.317216	1.287179	1.304762
00:00:00.157	1.301099	1.265201	1.294505
00:00:00.161	1.309890	1.289377	1.304762
00:00:00.161	1.326007	1.310623	1.309158
00:00:00.161	1.315018	1.311355	1.300366
00:00:00.161	1.313553	1.314286	1.306227
00:00:00.161	1.311355	1.312088	1.308425
00:00:00.161	1.296703	1.306960	1.300366
00:00:00.161	1.300366	1.317216	1.296703
00:00:00.161	1.306227	1.334066	1.310623
00:00:00.161	1.308425	1.336996	1.310623
00:00:00.161	1.302564	1.323810	1.312821
00:00:00.161	1.312088	1.319414	1.305495
00:00:00.161	1.309158	1.309890	1.306960
00:00:00.162	1.317949	1.306227	1.304762
00:00:00.162	1.311355	1.293773	1.302564
00:00:00.163	1.323810	1.293040	1.304029
00:00:00.163	1.323810	1.293040	1.306960
00:00:00.163	1.309158	1.279121	1.297436
00:00:00.164	1.310623	1.290842	1.298168
00:00:00.164	1.315018	1.298901	1.300366
00:00:00.164	1.311355	1.309158	1.311355
00:00:00.165	1.312821	1.321612	1.307692
00:00:00.165	1.308425	1.326007	1.298168
00:00:00.165	1.313553	1.341392	1.310623
00:00:00.166	1.306960	1.319414	1.300366
00:00:00.166	1.306960	1.316484	1.304029
00:00:00.166	1.311355	1.323810	1.306960
00:00:00.199	1.302564	1.315751	1.303297
00:00:00.199	1.309158	1.317949	1.309158
00:00:00.199	1.309158	1.320879	1.300366
00:00:00.200	1.317216	1.329670	1.312088
00:00:00.200	1.315751	1.330403	1.309890
00:00:00.200	1.318681	1.404396	1.309890
00:00:00.201	1.320147	1.394872	1.303297
00:00:00.201	1.321612	1.338462	1.306960
00:00:00.202	1.315018	1.277656	1.312088
00:00:00.202	1.313553	1.251282	1.316484
00:00:00.202	1.314286	1.249817	1.307692
00:00:00.203	1.310623	1.236630	1.306960
00:00:00.203	1.311355	1.190476	1.308425
00:00:00.203	1.303297	1.158974	1.286447
00:00:00.204	1.303297	1.222711	1.298901
00:00:00.204	1.309158	1.265934	1.302564
00:00:00.204	1.306227	1.307692	1.308425
00:00:00.206	1.314286	1.334066	1.314286
00:00:00.206	1.295971	1.339194	1.298901
00:00:00.206	1.314286	1.382418	1.308425
00:00:00.206	1.316484	1.373626	1.306227
00:00:00.206	1.317949	1.352381	1.299634
00:00:00.207	1.315018	1.322344	1.309158
00:00:00.207	1.320879	1.321612	1.311355
00:00:00.207	1.306960	1.298901	1.308425
00:00:00.208	1.316484	1.259341	1.305495
00:00:00.208	1.312821	1.242491	1.296703
00:00:00.208	1.315751	1.314286	1.309890
00:00:00.209	1.309158	1.338462	1.311355
00:00:00.209	1.300366	1.335531	1.308425
00:00:00.209	1.298901	1.323077	1.303297
00:00:00.210	1.290842	1.297436	1.298168
00:00:00.210	1.294505	1.302564	1.292308
00:00:00.210	1.302564	1.331868	1.306960
00:00:00.211	1.312821	1.345055	1.312821
00:00:00.211	1.311355	1.349451	1.307692
00:00:00.212	1.316484	1.346520	1.304029
00:00:00.212	1.312088	1.328938	1.306960
00:00:00.212	1.308425	1.298901	1.298901
00:00:00.213	1.323077	1.278388	1.306960
00:00:00.213	1.308425	1.233700	1.300366
00:00:00.213	1.317949	1.257875	1.314286
00:00:00.214	1.315018	1.237363	1.299634
00:00:00.214	1.306960	1.238828	1.299634
00:00:00.214	1.315751	1.296703	1.306227
00:00:00.215	1.313553	1.336264	1.305495
00:00:00.215	1.313553	1.334799	1.310623
00:00:00.215	1.314286	1.353114	1.309158
00:00:00.217	1.312088	1.386813	1.312821
00:00:00.217	1.308425	1.367033	1.313553
00:00:00.248	1.296703	1.315751	1.307692
00:00:00.251	1.312821	1.318681	1.307692
00:00:00.251	1.314286	1.315751	1.307692
00:00:00.251	1.308425	1.289377	1.299634
00:00:00.251	1.323077	1.301832	1.312088
00:00:00.251	1.309158	1.287912	1.300366
00:00:00.253	1.318681	1.298168	1.304762
00:00:00.253	1.317949	1.294505	1.307692
00:00:00.253	1.324542	1.300366	1.309158
00:00:00.253	1.312821	1.305495	1.303297
00:00:00.253	1.311355	1.309890	1.304762
00:00:00.253	1.309158	1.302564	1.304762
00:00:00.253	1.311355	1.309890	1.305495
00:00:00.253	1.306960	1.313553	1.306227
00:00:00.253	1.301099	1.311355	1.306227
00:00:00.257	1.303297	1.304762	1.305495
00:00:00.257	1.307692	1.323077	1.306227
00:00:00.257	1.308425	1.317949	1.304029
00:00:00.257	1.305495	1.315018	1.306227
00:00:00.257	1.310623	1.313553	1.308425
00:00:00.257	1.311355	1.304762	1.306960
00:00:00.257	1.317949	1.300366	1.304762
00:00:00.257	1.311355	1.314286	1.305495
00:00:00.257	1.317216	1.361172	1.306227
00:00:00.258	1.312088	1.359707	1.306960
00:00:00.258	1.319414	1.323810	1.309890
00:00:00.258	1.317216	1.290842	1.316484
00:00:00.258	1.310623	1.269597	1.309158
00:00:00.258	1.302564	1.268864	1.306227
00:00:00.259	1.304762	1.266667	1.295971
00:00:00.259	1.304762	1.235897	1.303297
00:00:00.259	1.301832	1.264469	1.302564
00:00:00.260	1.298168	1.317216	1.304762
00:00:00.260	1.301832	1.331136	1.304762
00:00:00.261	1.302564	1.310623	1.304029
00:00:00.261	1.314286	1.286447	1.304762
00:00:00.261	1.313553	1.273993	1.306960
00:00:00.262	1.309890	1.301832	1.290110
00:00:00.262	1.323077	1.328938	1.304029
00:00:00.262	1.310623	1.323077	1.305495
00:00:00.263	1.320879	1.327473	1.309890
00:00:00.263	1.316484	1.300366	1.292308
00:00:00.263	1.310623	1.298168	1.304762
00:00:00.264	1.316484	1.306960	1.303297
00:00:00.264	1.304762	1.304029	1.305495
00:00:00.264	1.317216	1.312821	1.309158
00:00:00.265	1.310623	1.306960	1.295238
00:00:00.265	1.305495	1.320879	1.303297
00:00:00.266	1.306227	1.334799	1.306960
00:00:00.266	1.293773	1.362637	1.300366
00:00:00.298	1.311355	1.415385	1.312821
00:00:00.298	1.304029	1.363370	1.300366
00:00:00.299	1.306960	1.298168	1.302564
00:00:00.299	1.295238	1.235897	1.307692
00:00:00.300	1.300366	1.216117	1.300366
00:00:00.300	1.312088	1.238095	1.308425
00:00:00.300	1.317949	1.245421	1.306227
00:00:00.301	1.309890	1.251282	1.293040
00:00:00.301	1.309158	1.284982	1.300366
00:00:00.301	1.300366	1.302564	1.296703
00:00:00.302	1.310623	1.329670	1.309158
00:00:00.302	1.309158	1.370696	1.304029
00:00:00.302	1.308425	1.390476	1.311355
00:00:00.303	1.309158	1.362637	1.307692
00:00:00.303	1.301099	1.324542	1.304029
00:00:00.303	1.308425	1.263004	1.307692
00:00:00.304	1.309158	1.232234	1.304762
00:00:00.304	1.316484	1.250549	1.307692
00:00:00.305	1.320147	1.284249	1.304762
00:00:00.305	1.322344	1.298168	1.314286
00:00:00.305	1.304029	1.315018	1.304762
00:00:00.306	1.316484	1.340659	1.304029
00:00:00.306	1.309158	1.346520	1.305495
00:00:00.306	1.318681	1.397070	1.312088
00:00:00.307	1.315018	1.422711	1.306227
00:00:00.307	1.322344	1.416850	1.317216
00:00:00.307	1.309890	1.371429	1.305495
00:00:00.308	1.305495	1.312088	1.296703
00:00:00.308	1.312821	1.249817	1.308425
00:00:00.308	1.307692	1.169963	1.299634
00:00:00.309	1.306227	1.101099	1.298901
00:00:00.310	1.306227	1.146520	1.299634
00:00:00.310	1.306960	1.221245	1.301832
00:00:00.310	1.310623	1.318681	1.306227
00:00:00.310	1.299634	1.358974	1.293773
00:00:00.311	1.314286	1.366300	1.309890
00:00:00.311	1.310623	1.342125	1.308425
00:00:00.311	1.315018	1.327473	1.311355
00:00:00.314	1.316484	1.328205	1.305495
00:00:00.314	1.306227	1.299634	1.293040
00:00:00.314	1.313553	1.308425	1.309158
00:00:00.314	1.325275	1.320147	1.308425
00:00:00.314	1.315751	1.309890	1.302564
00:00:00.314	1.320147	1.347253	1.313553
00:00:00.314	1.323077	1.374359	1.312821
00:00:00.316	1.317949	1.361905	1.308425
00:00:00.316	1.305495	1.331136	1.306227
00:00:00.316	1.316484	1.338462	1.308425
00:00:00.316	1.307692	1.343590	1.313553
00:00:00.316	1.312088	1.339927	1.315751
00:00:00.349	1.306227	1.263736	1.303297
00:00:00.349	1.293040	1.215385	1.290842
00:00:00.349	1.304762	1.239560	1.298901
00:00:00.349	1.305495	1.273993	1.305495
00:00:00.349	1.314286	1.277656	1.312821
00:00:00.353	1.307692	1.271795	1.300366
00:00:00.353	1.311355	1.306227	1.313553
00:00:00.353	1.312088	1.309158	1.308425
00:00:00.353	1.307692	1.320879	1.309158
00:00:00.353	1.315018	1.327473	1.312821
00:00:00.353	1.319414	1.331136	1.310623
00:00:00.353	1.319414	1.328205	1.315751
00:00:00.353	1.310623	1.328205	1.312088
00:00:00.353	1.299634	1.323077	1.303297
00:00:00.353	1.311355	1.333333	1.309158
00:00:00.353	1.315018	1.334066	1.305495
00:00:00.354	1.306227	1.323077	1.298901
00:00:00.354	1.309890	1.328205	1.312088
00:00:00.354	1.303297	1.312821	1.300366
00:00:00.355	1.308425	1.313553	1.310623
00:00:00.355	1.314286	1.309158	1.306227
00:00:00.355	1.315751	1.295238	1.293773
00:00:00.356	1.317949	1.294505	1.300366
00:00:00.356	1.323077	1.330403	1.308425
00:00:00.356	1.319414	1.320879	1.300366
00:00:00.357	1.325275	1.309890	1.304762
00:00:00.357	1.320879	1.291575	1.310623
00:00:00.357	1.324542	1.284982	1.307692
00:00:00.358	1.312821	1.279853	1.311355
00:00:00.358	1.301099	1.273260	1.301832
00:00:00.359	1.306227	1.267399	1.302564
00:00:00.359	1.300366	1.278388	1.309890
00:00:00.359	1.284982	1.305495	1.303297
00:00:00.360	1.294505	1.323077	1.299634
00:00:00.360	1.307692	1.338462	1.309890
00:00:00.360	1.314286	1.336264	1.309158
00:00:00.361	1.312088	1.321612	1.310623
00:00:00.361	1.310623	1.309158	1.309158
00:00:00.362	1.315751	1.300366	1.299634
00:00:00.362	1.326007	1.309890	1.304762
00:00:00.362	1.320147	1.301832	1.308425
00:00:00.363	1.320879	1.294505	1.304762
00:00:00.363	1.317949	1.290842	1.295238
00:00:00.363	1.323077	1.302564	1.306227
00:00:00.364	1.323810	1.306960	1.310623
00:00:00.364	1.315751	1.309890	1.306960
00:00:00.364	1.313553	1.333333	1.306960
00:00:00.365	1.316484	1.358242	1.308425
00:00:00.365	1.309890	1.350916	1.305495
00:00:00.365	1.310623	1.335531	1.304029
