timestamp	ch1	ch2	ch3
00:00:00.000	1.305495	1.264469	1.304029
00:00:00.000	1.307692	1.245421	1.300366
00:00:00.000	1.304762	1.235165	1.292308
00:00:00.000	1.307692	1.268864	1.304762
00:00:00.001	1.304029	1.274725	1.305495
00:00:00.002	1.307692	1.307692	1.305495
00:00:00.002	1.306227	1.330403	1.300366
00:00:00.002	1.308425	1.351648	1.307692
00:00:00.004	1.311355	1.348718	1.306960
00:00:00.004	1.294505	1.390476	1.289377
00:00:00.004	1.312088	1.405861	1.314286
00:00:00.004	1.312088	1.369963	1.304762
00:00:00.004	1.312088	1.353114	1.307692
00:00:00.004	1.317216	1.290842	1.309890
00:00:00.004	1.311355	1.271795	1.305495
00:00:00.006	1.314286	1.292308	1.300366
00:00:00.006	1.323077	1.266667	1.290842
00:00:00.006	1.320147	1.250549	1.304029
00:00:00.006	1.312088	1.246154	1.304762
00:00:00.006	1.319414	1.260073	1.308425
00:00:00.006	1.312088	1.265934	1.303297
00:00:00.006	1.302564	1.298901	1.305495
00:00:00.008	1.312088	1.282051	1.309158
00:00:00.008	1.300366	1.292308	1.295971
00:00:00.008	1.309890	1.308425	1.300366
00:00:00.008	1.313553	1.304029	1.296703
00:00:00.008	1.310623	1.310623	1.312088
00:00:00.008	1.312821	1.312821	1.300366
00:00:00.009	1.307692	1.330403	1.306227
00:00:00.009	1.309890	1.324542	1.307692
00:00:00.009	1.307692	1.326007	1.303297
00:00:00.010	1.309890	1.333333	1.307692
00:00:00.011	1.320147	1.330403	1.307692
00:00:00.011	1.317949	1.314286	1.305495
00:00:00.011	1.314286	1.312821	1.307692
00:00:00.011	1.318681	1.317949	1.306227
00:00:00.012	1.309158	1.312088	1.299634
00:00:00.012	1.312088	1.317949	1.306227
00:00:00.012	1.291575	1.298901	1.294505
00:00:00.013	1.318681	1.309890	1.295238
00:00:00.013	1.312088	1.312821	1.299634
00:00:00.013	1.308425	1.312821	1.309158
00:00:00.014	1.312088	1.311355	1.314286
00:00:00.014	1.309890	1.323810	1.309890
00:00:00.014	1.311355	1.329670	1.304029
00:00:00.015	1.315751	1.333333	1.312821
00:00:00.015	1.316484	1.322344	1.306960
00:00:00.016	1.314286	1.299634	1.304762
00:00:00.016	1.305495	1.287179	1.304762
00:00:00.016	1.313553	1.289377	1.306227
00:00:00.048	1.315018	1.268132	1.301832
00:00:00.049	1.312821	1.242491	1.302564
00:00:00.049	1.312088	1.267399	1.302564
00:00:00.050	1.316484	1.287179	1.306227
00:00:00.051	1.304029	1.287912	1.309158
00:00:00.051	1.314286	1.306960	1.308425
00:00:00.051	1.297436	1.343590	1.307692
00:00:00.051	1.304029	1.369231	1.298901
00:00:00.051	1.299634	1.378022	1.294505
00:00:00.052	1.312088	1.387546	1.308425
00:00:00.052	1.309158	1.385348	1.300366
00:00:00.053	1.312821	1.306227	1.312088
00:00:00.053	1.306227	1.227839	1.298168
00:00:00.053	1.294505	1.175824	1.296703
00:00:00.053	1.309890	1.204396	1.312821
00:00:00.054	1.320879	1.244689	1.299634
00:00:00.054	1.317216	1.306227	1.308425
00:00:00.055	1.299634	1.332601	1.300366
00:00:00.055	1.297436	1.356044	1.296703
00:00:00.055	1.320147	1.327473	1.308425
00:00:00.056	1.304762	1.301832	1.300366
00:00:00.056	1.307692	1.298168	1.299634
00:00:00.056	1.309158	1.315018	1.306227
00:00:00.057	1.311355	1.315018	1.300366
00:00:00.057	1.300366	1.321612	1.304762
00:00:00.058	1.302564	1.339194	1.306227
00:00:00.058	1.306227	1.323077	1.309158
00:00:00.058	1.319414	1.328938	1.312088
00:00:00.058	1.314286	1.316484	1.304762
00:00:00.059	1.314286	1.317216	1.308425
00:00:00.059	1.315018	1.310623	1.309158
00:00:00.060	1.317949	1.281319	1.302564
00:00:00.060	1.313553	1.264469	1.302564
00:00:00.060	1.322344	1.297436	1.312821
00:00:00.061	1.315751	1.303297	1.301832
00:00:00.061	1.310623	1.289377	1.295238
00:00:00.061	1.315018	1.295238	1.302564
00:00:00.062	1.309158	1.319414	1.304029
00:00:00.062	1.302564	1.342125	1.305495
00:00:00.063	1.295971	1.294505	1.295238
00:00:00.064	1.304762	1.306227	1.294505
00:00:00.064	1.310623	1.309158	1.305495
00:00:00.064	1.304029	1.293040	1.302564
00:00:00.065	1.309158	1.295971	1.307692
00:00:00.065	1.300366	1.282784	1.309890
00:00:00.068	1.309890	1.300366	1.307692
00:00:00.068	1.307692	1.268864	1.309890
00:00:00.068	1.305495	1.254945	1.295238
00:00:00.068	1.317949	1.289377	1.298168
00:00:00.068	1.320147	1.320879	1.308425
00:00:00.098	1.312088	1.336264	1.298901
00:00:00.101	1.321612	1.386813	1.306960
00:00:00.101	1.299634	1.402930	1.298168
00:00:00.101	1.303297	1.468132	1.306227
00:00:00.101	1.300366	1.414652	1.312821
00:00:00.101	1.321612	1.336996	1.298901
00:00:00.101	1.302564	1.356044	1.293040
00:00:00.101	1.317216	1.314286	1.310623
00:00:00.101	1.303297	1.178022	1.299634
00:00:00.101	1.298901	1.100366	1.306960
00:00:00.103	1.309158	1.079121	1.309890
00:00:00.103	1.295971	1.138462	1.298168
00:00:00.103	1.316484	1.240293	1.310623
00:00:00.104	1.310623	1.311355	1.304762
00:00:00.104	1.304029	1.377289	1.304762
00:00:00.104	1.314286	1.403663	1.299634
00:00:00.104	1.312088	1.390476	1.304029
00:00:00.104	1.314286	1.394872	1.298168
00:00:00.105	1.303297	1.352381	1.298168
00:00:00.105	1.314286	1.306960	1.306960
00:00:00.105	1.298901	1.265934	1.302564
00:00:00.106	1.306960	1.282784	1.305495
00:00:00.106	1.309158	1.288645	1.293040
00:00:00.106	1.314286	1.295971	1.311355
00:00:00.107	1.306227	1.282051	1.296703
00:00:00.107	1.302564	1.290110	1.293040
00:00:00.107	1.306960	1.307692	1.303297
00:00:00.108	1.312088	1.310623	1.309158
00:00:00.108	1.306960	1.299634	1.300366
00:00:00.109	1.311355	1.303297	1.296703
00:00:00.109	1.313553	1.323077	1.310623
00:00:00.109	1.309890	1.336264	1.297436
00:00:00.110	1.312088	1.358974	1.308425
00:00:00.110	1.312088	1.358242	1.313553
00:00:00.110	1.318681	1.329670	1.302564
00:00:00.111	1.300366	1.304029	1.295238
00:00:00.111	1.320879	1.320879	1.306960
00:00:00.111	1.315751	1.323077	1.309890
00:00:00.112	1.310623	1.330403	1.304029
00:00:00.112	1.314286	1.323810	1.309890
00:00:00.112	1.309890	1.307692	1.310623
00:00:00.113	1.313553	1.315751	1.308425
00:00:00.113	1.311355	1.317949	1.301832
00:00:00.114	1.296703	1.260806	1.295238
00:00:00.114	1.305495	1.239560	1.304029
00:00:00.114	1.312821	1.237363	1.309890
00:00:00.115	1.310623	1.257143	1.309158
00:00:00.115	1.310623	1.280586	1.307692
00:00:00.115	1.299634	1.336264	1.301832
00:00:00.116	1.299634	1.382418	1.300366
00:00:00.148	1.306227	1.410256	1.306227
00:00:00.148	1.304762	1.353846	1.297436
00:00:00.149	1.316484	1.309890	1.311355
00:00:00.149	1.317949	1.281319	1.307692
00:00:00.149	1.311355	1.253480	1.298168
00:00:00.150	1.300366	1.254945	1.300366
00:00:00.150	1.309158	1.257143	1.303297
00:00:00.150	1.318681	1.265934	1.299634
00:00:00.151	1.315018	1.292308	1.304029
00:00:00.151	1.314286	1.385348	1.304762
00:00:00.151	1.309158	1.402198	1.311355
00:00:00.152	1.306227	1.356777	1.306960
00:00:00.152	1.310623	1.284982	1.314286
00:00:00.153	1.313553	1.270330	1.304762
00:00:00.153	1.303297	1.243956	1.300366
00:00:00.153	1.319414	1.249084	1.310623
00:00:00.154	1.315018	1.269597	1.304029
00:00:00.154	1.308425	1.255678	1.293773
00:00:00.154	1.320147	1.249084	1.309158
00:00:00.155	1.307692	1.277656	1.305495
00:00:00.155	1.309158	1.404396	1.298168
00:00:00.155	1.305495	1.376557	1.296703
00:00:00.156	1.310623	1.320147	1.302564
00:00:00.156	1.310623	1.298901	1.314286
00:00:00.156	1.306960	1.287912	1.305495
00:00:00.157	1.299634	1.298901	1.302564
00:00:00.157	1.312088	1.345055	1.311355
00:00:00.158	1.301099	1.378022	1.309158
00:00:00.159	1.297436	1.417582	1.308425
00:00:00.159	1.312088	1.386081	1.306227
00:00:00.159	1.310623	1.298901	1.302564
00:00:00.159	1.312088	1.238095	1.298168
00:00:00.159	1.307692	1.239560	1.304762
00:00:00.161	1.315018	1.212454	1.300366
00:00:00.161	1.309158	1.235165	1.307692
00:00:00.161	1.312088	1.263004	1.300366
00:00:00.163	1.317216	1.284982	1.308425
00:00:00.163	1.322344	1.369231	1.308425
00:00:00.163	1.314286	1.412454	1.314286
00:00:00.163	1.317216	1.414652	1.313553
00:00:00.163	1.316484	1.397070	1.299634
00:00:00.163	1.309158	1.335531	1.288645
00:00:00.163	1.312088	1.267399	1.299634
00:00:00.163	1.297436	1.222711	1.296703
00:00:00.166	1.299634	1.150183	1.298168
00:00:00.166	1.317216	1.177289	1.300366
00:00:00.166	1.312088	1.256410	1.308425
00:00:00.166	1.318681	1.313553	1.306960
00:00:00.166	1.309890	1.319414	1.311355
00:00:00.166	1.315018	1.367033	1.315018
00:00:00.199	1.316484	1.381685	1.307692
00:00:00.199	1.308425	1.322344	1.295971
00:00:00.199	1.307692	1.295238	1.305495
00:00:00.199	1.304762	1.271795	1.297436
00:00:00.199	1.292308	1.281319	1.302564
00:00:00.199	1.298901	1.358242	1.308425
00:00:00.200	1.304029	1.404396	1.309158
00:00:00.200	1.306227	1.345788	1.297436
00:00:00.200	1.321612	1.293773	1.314286
00:00:00.201	1.318681	1.284249	1.300366
00:00:00.201	1.323077	1.309158	1.310623
00:00:00.202	1.324542	1.320147	1.317949
00:00:00.202	1.306227	1.310623	1.302564
00:00:00.202	1.311355	1.253480	1.314286
00:00:00.203	1.310623	1.216850	1.302564
00:00:00.203	1.291575	1.257875	1.305495
00:00:00.203	1.329670	1.318681	1.303297
00:00:00.204	1.325275	1.363370	1.312821
00:00:00.204	1.310623	1.336264	1.315018
00:00:00.204	1.308425	1.311355	1.310623
00:00:00.205	1.316484	1.301099	1.300366
00:00:00.205	1.317216	1.292308	1.307692
00:00:00.205	1.342125	1.310623	1.306960
00:00:00.206	1.328938	1.316484	1.303297
00:00:00.206	1.315018	1.317216	1.304029
00:00:00.207	1.314286	1.322344	1.306960
00:00:00.207	1.296703	1.330403	1.306960
00:00:00.207	1.292308	1.337729	1.313553
00:00:00.208	1.293773	1.333333	1.306960
00:00:00.208	1.306227	1.377289	1.308425
00:00:00.208	1.311355	1.344322	1.312821
00:00:00.209	1.315018	1.279121	1.303297
00:00:00.209	1.308425	1.251282	1.308425
00:00:00.209	1.317949	1.260073	1.304762
00:00:00.210	1.318681	1.289377	1.306960
00:00:00.210	1.312821	1.312088	1.312821
00:00:00.210	1.315018	1.326740	1.302564
00:00:00.211	1.305495	1.334799	1.290842
00:00:00.211	1.317949	1.344322	1.293040
00:00:00.212	1.314286	1.322344	1.293773
00:00:00.212	1.300366	1.279121	1.290842
00:00:00.212	1.312088	1.267399	1.302564
00:00:00.213	1.301099	1.257875	1.304029
00:00:00.213	1.298168	1.258608	1.309890
00:00:00.213	1.315018	1.281319	1.317216
00:00:00.214	1.311355	1.295238	1.309890
00:00:00.214	1.306960	1.343590	1.312088
00:00:00.214	1.304762	1.375092	1.311355
00:00:00.215	1.298168	1.339194	1.298168
00:00:00.215	1.317216	1.334799	1.299634
00:00:00.247	1.312088	1.318681	1.293773
00:00:00.248	1.320147	1.312821	1.304029
00:00:00.248	1.312088	1.331868	1.306960
00:00:00.248	1.312088	1.358242	1.309158
00:00:00.249	1.313553	1.368498	1.307692
00:00:00.249	1.312088	1.394139	1.300366
00:00:00.249	1.315018	1.400733	1.298168
00:00:00.250	1.312088	1.317949	1.304029
00:00:00.250	1.306227	1.225641	1.302564
00:00:00.251	1.310623	1.180952	1.314286
00:00:00.253	1.320147	1.220513	1.317216
00:00:00.253	1.308425	1.222711	1.320147
00:00:00.253	1.313553	1.182418	1.317949
00:00:00.253	1.295238	1.182418	1.293040
00:00:00.253	1.312821	1.260073	1.306960
00:00:00.253	1.315751	1.320879	1.294505
00:00:00.253	1.320879	1.352381	1.298901
00:00:00.253	1.316484	1.375824	1.290842
00:00:00.254	1.298901	1.362637	1.279853
00:00:00.254	1.315018	1.369231	1.298168
00:00:00.254	1.312088	1.398535	1.303297
00:00:00.255	1.308425	1.403663	1.304029
00:00:00.255	1.316484	1.338462	1.306227
00:00:00.257	1.308425	1.283516	1.306960
00:00:00.257	1.310623	1.247619	1.310623
00:00:00.257	1.323077	1.217582	1.307692
00:00:00.259	1.316484	1.241026	1.270330
00:00:00.259	1.327473	1.312088	1.282051
00:00:00.259	1.317949	1.356777	1.284249
00:00:00.259	1.313553	1.341392	1.294505
00:00:00.259	1.322344	1.303297	1.312821
00:00:00.259	1.310623	1.262271	1.306960
00:00:00.259	1.315018	1.344322	1.336264
00:00:00.259	1.316484	1.429304	1.332601
00:00:00.259	1.303297	1.452015	1.326007
00:00:00.262	1.306960	1.375092	1.337729
00:00:00.262	1.312821	1.292308	1.334799
00:00:00.262	1.309158	1.271062	1.285714
00:00:00.262	1.315018	1.287179	1.275458
00:00:00.262	1.302564	1.224176	1.263004
00:00:00.262	1.295971	1.167766	1.284982
00:00:00.262	1.310623	1.254212	1.315018
00:00:00.262	1.299634	1.257143	1.317216
00:00:00.264	1.293773	1.204396	1.331136
00:00:00.264	1.309158	1.128205	1.328938
00:00:00.264	1.318681	1.165568	1.317216
00:00:00.265	1.310623	1.316484	1.317949
00:00:00.265	1.317216	1.356044	1.312821
00:00:00.265	1.308425	1.364835	1.301832
00:00:00.265	1.321612	1.378755	1.295971
00:00:00.298	1.320879	1.381685	1.300366
00:00:00.298	1.320147	1.365568	1.300366
00:00:00.298	1.314286	1.356044	1.302564
00:00:00.298	1.303297	1.364103	1.298901
00:00:00.298	1.311355	1.451282	1.302564
00:00:00.299	1.315018	1.468864	1.304762
00:00:00.299	1.311355	1.390476	1.306227
00:00:00.300	1.306960	1.347253	1.303297
00:00:00.300	1.301832	1.287179	1.306960
00:00:00.300	1.314286	1.238095	1.315751
00:00:00.301	1.312821	1.191209	1.312821
00:00:00.301	1.301832	1.192674	1.304762
00:00:00.301	1.320879	1.235897	1.306960
00:00:00.302	1.310623	1.278388	1.297436
00:00:00.302	1.318681	1.342125	1.295971
00:00:00.302	1.317949	1.437363	1.300366
00:00:00.303	1.306960	1.428571	1.295971
00:00:00.304	1.320879	1.340659	1.306227
00:00:00.304	1.321612	1.287912	1.315751
00:00:00.304	1.320147	1.252747	1.320879
00:00:00.305	1.313553	1.251282	1.317216
00:00:00.305	1.314286	1.304029	1.303297
00:00:00.305	1.300366	1.297436	1.284982
00:00:00.305	1.313553	1.389011	1.297436
00:00:00.306	1.294505	1.361905	1.295971
00:00:00.306	1.310623	1.307692	1.313553
00:00:00.306	1.298901	1.241026	1.295238
00:00:00.307	1.294505	1.139927	1.289377
00:00:00.307	1.312088	1.199267	1.299634
00:00:00.307	1.311355	1.233700	1.317216
00:00:00.308	1.304762	1.244689	1.312088
00:00:00.308	1.312088	1.387546	1.308425
00:00:00.308	1.297436	1.468864	1.279853
00:00:00.309	1.302564	1.487179	1.294505
00:00:00.309	1.303297	1.369231	1.299634
00:00:00.310	1.311355	1.266667	1.316484
00:00:00.310	1.336264	1.147253	1.300366
00:00:00.310	1.319414	1.103297	1.263736
00:00:00.311	1.317216	1.189744	1.265201
00:00:00.311	1.288645	1.268864	1.240293
00:00:00.311	1.295971	1.293773	1.273993
00:00:00.312	1.326740	1.348718	1.312088
00:00:00.312	1.320879	1.359707	1.340659
00:00:00.312	1.317949	1.371429	1.362637
00:00:00.313	1.319414	1.423443	1.364835
00:00:00.313	1.323077	1.458608	1.386813
00:00:00.314	1.323077	1.288645	1.374359
00:00:00.314	1.303297	1.216117	1.335531
00:00:00.314	1.282051	1.210256	1.298901
00:00:00.315	1.286447	1.256410	1.296703
00:00:00.347	1.290842	1.323810	1.274725
00:00:00.347	1.294505	1.489377	1.286447
00:00:00.347	1.315751	1.606593	1.316484
00:00:00.348	1.315018	1.534799	1.334066
00:00:00.348	1.308425	1.356777	1.282051
00:00:00.350	1.322344	1.220513	1.276923
00:00:00.350	1.312821	1.188278	1.266667
00:00:00.350	1.309158	1.402930	1.263736
00:00:00.350	1.316484	1.445421	1.263004
00:00:00.350	1.317216	1.185348	1.274725
00:00:00.350	1.313553	1.048352	1.315751
00:00:00.352	1.316484	1.063004	1.350916
00:00:00.352	1.304029	1.005861	1.344322
00:00:00.352	1.309158	1.038828	1.339194
00:00:00.352	1.307692	1.169231	1.339927
00:00:00.352	1.302564	1.264469	1.330403
00:00:00.352	1.285714	1.397802	1.300366
00:00:00.354	1.297436	1.461538	1.298168
00:00:00.354	1.303297	1.415385	1.287912
00:00:00.355	1.332601	1.511355	1.315751
00:00:00.355	1.332601	1.547985	1.314286
00:00:00.355	1.317949	1.513553	1.328938
00:00:00.356	1.303297	1.432967	1.300366
00:00:00.356	1.295238	1.473993	1.294505
00:00:00.356	1.298168	1.449817	1.293040
00:00:00.356	1.304029	1.312088	1.283516
00:00:00.356	1.312821	1.142125	1.254212
00:00:00.357	1.320879	1.066667	1.261538
00:00:00.359	1.330403	0.975092	1.265934
00:00:00.359	1.326007	0.884249	1.263004
00:00:00.359	1.328205	1.082784	1.289377
00:00:00.359	1.334066	1.312821	1.309158
00:00:00.359	1.338462	1.400000	1.346520
00:00:00.359	1.348718	1.504762	1.370696
00:00:00.359	1.338462	1.532601	1.372894
00:00:00.359	1.328205	1.547253	1.362637
00:00:00.361	1.305495	1.608791	1.318681
00:00:00.361	1.319414	1.599267	1.291575
00:00:00.361	1.309890	1.379487	1.274725
00:00:00.362	1.298901	1.237363	1.276923
00:00:00.362	1.279121	1.332601	1.294505
00:00:00.362	1.279853	1.371429	1.298901
00:00:00.362	1.259341	1.286447	1.314286
00:00:00.362	1.252015	1.189011	1.337729
00:00:00.362	1.232234	1.025641	1.337729
00:00:00.363	1.230769	1.013187	1.308425
00:00:00.363	1.257875	1.074725	1.311355
00:00:00.364	1.293773	1.171429	1.293040
00:00:00.364	1.328205	1.322344	1.281319
00:00:00.364	1.353846	1.378022	1.295238
00:00:00.396	1.358974	1.316484	1.293040
00:00:00.397	1.388278	1.327473	1.334799
00:00:00.397	1.351648	1.281319	1.317216
00:00:00.398	1.339194	1.319414	1.306227
00:00:00.399	1.323810	1.323077	1.295238
00:00:00.399	1.344322	1.266667	1.287912
00:00:00.399	1.373626	1.270330	1.308425
00:00:00.399	1.344322	1.254212	1.309158
00:00:00.399	1.298901	1.354579	1.290842
00:00:00.400	1.288645	1.419780	1.295238
00:00:00.400	1.288645	1.501832	1.306227
00:00:00.400	1.300366	1.732601	1.331136
00:00:00.401	1.279121	1.696703	1.317216
00:00:00.401	1.279853	1.481319	1.307692
00:00:00.401	1.274725	1.300366	1.293040
00:00:00.402	1.276923	1.233700	1.296703
00:00:00.402	1.291575	1.005128	1.280586
00:00:00.403	1.291575	1.158242	1.282784
00:00:00.403	1.291575	1.199267	1.274725
00:00:00.403	1.268132	1.031502	1.265934
00:00:00.404	1.306960	0.977289	1.306227
00:00:00.404	1.320879	1.165568	1.326740
00:00:00.404	1.346520	1.375092	1.359707
00:00:00.405	1.342125	1.429304	1.326007
00:00:00.405	1.320879	1.526740	1.310623
00:00:00.405	1.325275	1.416850	1.289377
00:00:00.406	1.309890	1.237363	1.282051
00:00:00.406	1.321612	1.247619	1.294505
00:00:00.406	1.315751	1.349451	1.306960
00:00:00.407	1.310623	1.326007	1.306960
00:00:00.408	1.305495	1.276190	1.318681
00:00:00.408	1.302564	1.272527	1.336996
00:00:00.408	1.316484	1.182418	1.332601
00:00:00.408	1.332601	1.153114	1.326007
00:00:00.409	1.328205	1.295238	1.322344
00:00:00.409	1.320147	1.367766	1.300366
00:00:00.409	1.303297	1.366300	1.293773
00:00:00.410	1.297436	1.335531	1.293040
00:00:00.410	1.342125	1.405861	1.311355
00:00:00.410	1.344322	1.400733	1.315018
00:00:00.411	1.304762	1.385348	1.293040
00:00:00.411	1.309158	1.367766	1.292308
00:00:00.411	1.346520	1.385348	1.293773
00:00:00.412	1.344322	1.448352	1.288645
00:00:00.412	1.320879	1.482784	1.292308
00:00:00.413	1.293773	1.525275	1.303297
00:00:00.413	1.295238	1.455678	1.311355
00:00:00.413	1.291575	1.454212	1.299634
00:00:00.414	1.284982	1.393407	1.312821
00:00:00.414	1.274725	1.071062	1.316484
00:00:00.446	1.279121	0.963370	1.310623
00:00:00.447	1.307692	0.947985	1.296703
00:00:00.447	1.325275	0.799267	1.292308
00:00:00.447	1.341392	1.030769	1.302564
00:00:00.449	1.336264	1.291575	1.287179
00:00:00.449	1.362637	1.410256	1.308425
00:00:00.449	1.350916	1.443956	1.312088
00:00:00.452	1.309890	1.404396	1.314286
00:00:00.452	1.294505	1.419780	1.308425
00:00:00.452	1.272527	1.431502	1.300366
00:00:00.452	1.262271	1.358974	1.300366
00:00:00.452	1.259341	1.314286	1.311355
00:00:00.452	1.257875	1.353846	1.298168
00:00:00.452	1.253480	1.314286	1.310623
00:00:00.452	1.271795	1.191941	1.311355
00:00:00.452	1.298168	1.182418	1.317216
00:00:00.452	1.330403	1.286447	1.320147
00:00:00.452	1.340659	1.390476	1.298168
00:00:00.455	1.332601	1.416850	1.284249
00:00:00.455	1.346520	1.440293	1.300366
00:00:00.455	1.341392	1.453480	1.306960
00:00:00.455	1.321612	1.509890	1.323077
00:00:00.455	1.322344	1.430037	1.309158
00:00:00.455	1.313553	1.310623	1.291575
00:00:00.455	1.307692	1.247619	1.290110
00:00:00.455	1.309158	1.164103	1.299634
00:00:00.455	1.295971	1.128938	1.300366
00:00:00.457	1.306960	1.286447	1.298901
00:00:00.457	1.312821	1.383883	1.293773
00:00:00.457	1.303297	1.394139	1.306960
00:00:00.457	1.297436	1.345055	1.309158
00:00:00.457	1.282784	1.232234	1.300366
00:00:00.458	1.282784	1.164103	1.286447
00:00:00.458	1.298901	1.154579	1.297436
00:00:00.458	1.315751	1.218315	1.294505
00:00:00.459	1.336996	1.294505	1.312821
00:00:00.459	1.332601	1.360440	1.300366
00:00:00.460	1.334799	1.400733	1.297436
00:00:00.460	1.340659	1.353846	1.295238
00:00:00.460	1.339927	1.343590	1.311355
00:00:00.460	1.308425	1.286447	1.310623
00:00:00.461	1.290110	1.369963	1.307692
00:00:00.461	1.295971	1.411722	1.315018
00:00:00.462	1.294505	1.356044	1.300366
00:00:00.462	1.293773	1.302564	1.294505
00:00:00.462	1.308425	1.289377	1.303297
00:00:00.463	1.302564	1.302564	1.291575
00:00:00.463	1.313553	1.347253	1.309890
00:00:00.463	1.331136	1.432967	1.326740
00:00:00.464	1.328938	1.402198	1.333333
00:00:00.497	1.318681	1.234432	1.318681
00:00:00.497	1.301832	1.221978	1.304029
00:00:00.497	1.306960	1.230037	1.299634
00:00:00.497	1.331868	1.087912	1.299634
00:00:00.497	1.330403	1.053480	1.269597
00:00:00.498	1.328205	1.145055	1.279853
00:00:00.498	1.319414	1.322344	1.278388
00:00:00.498	1.323810	1.468864	1.297436
00:00:00.499	1.323077	1.526740	1.316484
00:00:00.499	1.297436	1.368498	1.280586
00:00:00.499	1.283516	1.156044	1.276923
00:00:00.500	1.269597	1.092308	1.299634
00:00:00.500	1.246154	1.236630	1.307692
00:00:00.501	1.276190	1.347253	1.327473
00:00:00.501	1.287179	1.356044	1.342857
00:00:00.501	1.278388	1.392674	1.320879
00:00:00.502	1.297436	1.490842	1.309890
00:00:00.502	1.317949	1.580220	1.323810
00:00:00.502	1.342857	1.619780	1.336996
00:00:00.503	1.332601	1.532601	1.328938
00:00:00.503	1.314286	1.328938	1.300366
00:00:00.503	1.344322	1.051282	1.292308
00:00:00.504	1.350183	0.963370	1.285714
00:00:00.504	1.345055	0.890842	1.275458
00:00:00.504	1.321612	1.089377	1.284249
00:00:00.505	1.334799	1.316484	1.298901
00:00:00.505	1.355311	1.336996	1.310623
00:00:00.506	1.311355	1.337729	1.308425
00:00:00.506	1.280586	1.343590	1.313553
00:00:00.506	1.238095	1.381685	1.308425
00:00:00.507	1.244689	1.325275	1.315751
00:00:00.507	1.277656	1.319414	1.317216
00:00:00.507	1.295238	1.380952	1.304029
00:00:00.508	1.317949	1.526007	1.306227
00:00:00.509	1.313553	1.704762	1.314286
00:00:00.509	1.325275	1.823443	1.330403
00:00:00.509	1.331136	1.641758	1.322344
00:00:00.509	1.323810	1.251282	1.299634
00:00:00.509	1.348718	0.923810	1.293773
00:00:00.510	1.353846	0.817582	1.288645
00:00:00.510	1.347253	0.983883	1.305495
00:00:00.511	1.300366	1.108425	1.315751
00:00:00.511	1.262271	1.205861	1.307692
00:00:00.511	1.272527	1.247619	1.316484
00:00:00.516	1.265201	1.221978	1.313553
00:00:00.516	1.267399	1.298901	1.298901
00:00:00.516	1.294505	1.275458	1.304029
00:00:00.516	1.309890	1.305495	1.298901
00:00:00.516	1.309890	1.348718	1.284249
00:00:00.516	1.322344	1.353114	1.300366
00:00:00.547	1.339194	1.345788	1.298168
00:00:00.547	1.324542	1.355311	1.306960
00:00:00.547	1.328938	1.366300	1.306960
00:00:00.548	1.316484	1.387546	1.298901
00:00:00.548	1.326740	1.475458	1.315751
00:00:00.548	1.317949	1.542857	1.326007
00:00:00.548	1.308425	1.435165	1.294505
00:00:00.548	1.306227	1.366300	1.297436
00:00:00.548	1.312088	1.389011	1.306227
00:00:00.551	1.301832	1.283516	1.292308
00:00:00.551	1.311355	1.209524	1.297436
00:00:00.551	1.312088	1.172161	1.295238
00:00:00.551	1.306960	1.179487	1.295238
00:00:00.551	1.322344	1.103297	1.304029
00:00:00.551	1.309890	1.140659	1.298168
00:00:00.551	1.298168	1.175824	1.299634
00:00:00.551	1.306227	1.347985	1.299634
00:00:00.552	1.304029	1.391209	1.300366
00:00:00.552	1.320879	1.393407	1.314286
00:00:00.553	1.317949	1.386813	1.312088
00:00:00.553	1.317949	1.372894	1.326007
00:00:00.553	1.294505	1.344322	1.297436
00:00:00.553	1.293040	1.383150	1.304029
00:00:00.554	1.300366	1.372161	1.304029
00:00:00.554	1.288645	1.353846	1.300366
00:00:00.555	1.308425	1.293040	1.295971
00:00:00.555	1.308425	1.272527	1.298168
00:00:00.555	1.327473	1.276190	1.312821
00:00:00.556	1.331136	1.313553	1.307692
00:00:00.556	1.326740	1.342125	1.306227
00:00:00.556	1.314286	1.390476	1.309890
00:00:00.557	1.314286	1.408059	1.304762
00:00:00.557	1.315018	1.351648	1.287912
00:00:00.557	1.316484	1.275458	1.301832
00:00:00.558	1.302564	1.528205	1.284249
00:00:00.558	1.323810	1.669597	1.309158
00:00:00.558	1.314286	1.364835	1.293040
00:00:00.559	1.334799	1.219048	1.303297
00:00:00.559	1.331868	0.953114	1.309158
00:00:00.560	1.297436	0.704762	1.293040
00:00:00.560	1.277656	0.906960	1.322344
00:00:00.560	1.251282	1.099634	1.344322
00:00:00.561	1.256410	1.202930	1.331136
00:00:00.561	1.272527	1.377289	1.304029
00:00:00.561	1.282784	1.476923	1.304029
00:00:00.562	1.294505	1.497436	1.298168
00:00:00.562	1.335531	1.533333	1.326007
00:00:00.562	1.358974	1.457143	1.311355
00:00:00.563	1.362637	1.330403	1.323810
00:00:00.563	1.344322	1.271062	1.323077
00:00:00.595	1.334066	1.206593	1.305495
00:00:00.597	1.330403	1.235897	1.317949
00:00:00.598	1.293040	1.365568	1.298901
00:00:00.598	1.281319	1.453480	1.295971
00:00:00.598	1.259341	1.377289	1.275458
00:00:00.598	1.260806	1.242491	1.276190
00:00:00.598	1.288645	1.208059	1.282784
00:00:00.598	1.331136	1.307692	1.296703
00:00:00.598	1.332601	1.369231	1.301832
00:00:00.599	1.321612	1.421978	1.316484
00:00:00.599	1.302564	1.412454	1.317216
00:00:00.599	1.312088	1.373626	1.309158
00:00:00.600	1.319414	1.276923	1.311355
00:00:00.600	1.303297	1.230037	1.309158
00:00:00.600	1.326007	1.326740	1.311355
00:00:00.601	1.336996	1.312821	1.294505
00:00:00.601	1.358974	1.259341	1.286447
00:00:00.601	1.353114	1.245421	1.299634
00:00:00.602	1.353114	1.217582	1.310623
00:00:00.602	1.322344	1.153846	1.300366
00:00:00.602	1.299634	1.293040	1.309158
00:00:00.603	1.273260	1.352381	1.298168
00:00:00.603	1.265201	1.276923	1.307692
00:00:00.605	1.285714	1.304762	1.309158
00:00:00.605	1.292308	1.313553	1.313553
00:00:00.605	1.285714	1.368498	1.300366
00:00:00.605	1.293040	1.360440	1.303297
00:00:00.605	1.304762	1.350183	1.309158
00:00:00.605	1.302564	1.369963	1.296703
00:00:00.607	1.321612	1.471062	1.309158
00:00:00.607	1.328205	1.533333	1.320147
00:00:00.607	1.328938	1.480586	1.312821
00:00:00.607	1.308425	1.311355	1.295238
00:00:00.607	1.318681	1.249817	1.302564
00:00:00.607	1.302564	1.260806	1.285714
00:00:00.610	1.312088	1.252747	1.292308
00:00:00.610	1.323077	1.233700	1.295971
00:00:00.610	1.326007	1.199267	1.300366
00:00:00.610	1.330403	1.142857	1.297436
00:00:00.610	1.320879	1.095238	1.290842
00:00:00.610	1.305495	1.216117	1.287912
00:00:00.612	1.326007	1.390476	1.318681
00:00:00.612	1.315018	1.348718	1.312821
00:00:00.612	1.315018	1.320147	1.315751
00:00:00.612	1.314286	1.364835	1.314286
00:00:00.612	1.315751	1.271062	1.300366
00:00:00.612	1.298168	1.284249	1.305495
00:00:00.615	1.293040	1.317216	1.304762
00:00:00.615	1.295971	1.210256	1.299634
00:00:00.615	1.276190	1.027839	1.295238
00:00:00.647	1.289377	1.092308	1.296703
00:00:00.647	1.286447	1.298168	1.294505
00:00:00.647	1.281319	1.394139	1.291575
00:00:00.647	1.309158	1.429304	1.309890
00:00:00.647	1.313553	1.369231	1.304762
00:00:00.647	1.300366	1.367766	1.306960
00:00:00.647	1.326007	1.400733	1.315018
00:00:00.649	1.328205	1.402930	1.311355
00:00:00.650	1.324542	1.386081	1.312821
00:00:00.650	1.331868	1.383150	1.313553
00:00:00.650	1.317949	1.368498	1.300366
00:00:00.650	1.308425	1.371429	1.315018
00:00:00.650	1.293040	1.341392	1.300366
00:00:00.650	1.301832	1.343590	1.291575
00:00:00.650	1.301099	1.287912	1.299634
00:00:00.650	1.307692	1.257875	1.297436
00:00:00.651	1.309158	1.245421	1.299634
00:00:00.651	1.293040	1.298168	1.304762
00:00:00.651	1.317949	1.315751	1.309158
00:00:00.652	1.324542	1.296703	1.296703
00:00:00.652	1.305495	1.314286	1.287912
00:00:00.653	1.309890	1.320147	1.293040
00:00:00.653	1.317949	1.315018	1.298901
00:00:00.653	1.322344	1.312088	1.312088
00:00:00.654	1.313553	1.290842	1.310623
00:00:00.654	1.310623	1.294505	1.314286
00:00:00.654	1.305495	1.322344	1.320879
00:00:00.655	1.308425	1.326740	1.303297
00:00:00.656	1.297436	1.305495	1.283516
00:00:00.656	1.315751	1.349451	1.290842
00:00:00.656	1.326740	1.382418	1.268864
00:00:00.656	1.320147	1.347985	1.270330
00:00:00.656	1.325275	1.326007	1.303297
00:00:00.657	1.319414	1.244689	1.318681
00:00:00.657	1.336264	1.225641	1.349451
00:00:00.658	1.320147	1.218315	1.343590
00:00:00.658	1.282784	1.353114	1.336996
00:00:00.658	1.296703	1.512088	1.365568
00:00:00.659	1.287179	1.521612	1.336264
00:00:00.659	1.294505	1.357509	1.312821
00:00:00.659	1.300366	1.169963	1.302564
00:00:00.660	1.300366	1.003663	1.291575
00:00:00.660	1.291575	0.994139	1.276923
00:00:00.660	1.301099	1.248352	1.281319
00:00:00.661	1.315751	1.475458	1.308425
00:00:00.661	1.315018	1.394139	1.294505
00:00:00.661	1.320879	1.304762	1.293773
00:00:00.662	1.300366	1.237363	1.298901
00:00:00.663	1.286447	1.249084	1.289377
00:00:00.663	1.283516	1.239560	1.281319
00:00:00.695	1.310623	1.356044	1.294505
00:00:00.695	1.324542	1.417582	1.312088
00:00:00.695	1.328938	1.300366	1.309890
00:00:00.696	1.336996	1.230769	1.303297
00:00:00.697	1.320879	1.194872	1.295238
00:00:00.697	1.333333	1.234432	1.312088
00:00:00.697	1.307692	1.190476	1.300366
00:00:00.697	1.308425	1.256410	1.291575
00:00:00.698	1.303297	1.409524	1.312821
00:00:00.698	1.294505	1.405861	1.310623
00:00:00.698	1.299634	1.386813	1.311355
00:00:00.699	1.309890	1.333333	1.306227
00:00:00.699	1.315751	1.282784	1.315751
00:00:00.699	1.307692	1.226374	1.306227
00:00:00.701	1.302564	1.309158	1.300366
00:00:00.701	1.312088	1.372161	1.306227
00:00:00.702	1.312088	1.375824	1.306960
00:00:00.702	1.318681	1.403663	1.312821
00:00:00.702	1.323810	1.387546	1.295971
00:00:00.703	1.322344	1.374359	1.281319
00:00:00.703	1.320879	1.370696	1.265934
00:00:00.703	1.334799	1.357509	1.265934
00:00:00.703	1.347253	1.353846	1.284982
00:00:00.703	1.331136	1.373626	1.282051
00:00:00.703	1.323810	1.350916	1.296703
00:00:00.706	1.315018	1.312088	1.323077
00:00:00.706	1.335531	1.336264	1.352381
00:00:00.706	1.310623	1.252747	1.344322
00:00:00.706	1.292308	1.093040	1.342125
00:00:00.706	1.260806	1.063736	1.337729
00:00:00.706	1.249817	1.156777	1.301099
00:00:00.708	1.247619	1.284249	1.289377
00:00:00.708	1.238095	1.322344	1.276923
00:00:00.708	1.264469	1.317949	1.301832
00:00:00.708	1.254945	1.284982	1.305495
00:00:00.708	1.262271	1.274725	1.309890
00:00:00.708	1.314286	1.335531	1.317949
00:00:00.708	1.316484	1.392674	1.315018
00:00:00.708	1.334066	1.409524	1.314286
00:00:00.712	1.349451	1.435165	1.321612
00:00:00.712	1.347253	1.429304	1.299634
00:00:00.712	1.335531	1.342125	1.308425
00:00:00.712	1.325275	1.287912	1.304029
00:00:00.712	1.315018	1.229304	1.274725
00:00:00.712	1.325275	1.182418	1.273993
00:00:00.712	1.331136	1.132601	1.268864
00:00:00.712	1.319414	1.194872	1.279853
00:00:00.712	1.333333	1.308425	1.306960
00:00:00.712	1.316484	1.357509	1.312821
00:00:00.712	1.295971	1.415385	1.309158
00:00:00.744	1.314286	1.460073	1.321612
00:00:00.746	1.315751	1.427106	1.315018
00:00:00.746	1.323810	1.351648	1.328938
00:00:00.747	1.312821	1.279121	1.312821
00:00:00.747	1.310623	1.309158	1.309158
00:00:00.747	1.284249	1.320147	1.287912
00:00:00.747	1.320879	1.370696	1.304029
00:00:00.747	1.321612	1.283516	1.298168
00:00:00.747	1.309158	1.179487	1.305495
00:00:00.748	1.293773	1.108425	1.289377
00:00:00.748	1.282051	1.125275	1.279853
00:00:00.748	1.302564	1.273993	1.300366
00:00:00.749	1.321612	1.329670	1.299634
00:00:00.749	1.326740	1.333333	1.314286
00:00:00.749	1.322344	1.306960	1.309158
00:00:00.750	1.313553	1.351648	1.303297
00:00:00.750	1.331136	1.406593	1.313553
00:00:00.751	1.308425	1.391209	1.303297
00:00:00.751	1.309890	1.369231	1.315018
00:00:00.751	1.295971	1.325275	1.307692
00:00:00.752	1.297436	1.358974	1.302564
00:00:00.752	1.309890	1.455678	1.309158
00:00:00.753	1.310623	1.469597	1.300366
00:00:00.753	1.317949	1.406593	1.312088
00:00:00.753	1.321612	1.326740	1.317216
00:00:00.753	1.323810	1.154579	1.301832
00:00:00.754	1.295238	1.098901	1.282784
00:00:00.754	1.298168	1.314286	1.283516
00:00:00.754	1.310623	1.386813	1.287912
00:00:00.755	1.315018	1.282051	1.295971
00:00:00.755	1.317949	1.188278	1.293773
00:00:00.756	1.321612	0.914286	1.288645
00:00:00.756	1.317949	1.040293	1.299634
00:00:00.756	1.312088	1.350183	1.320879
00:00:00.757	1.290842	1.557509	1.335531
00:00:00.757	1.282784	1.638095	1.325275
00:00:00.757	1.289377	1.589744	1.330403
00:00:00.758	1.281319	1.454945	1.285714
00:00:00.758	1.320879	1.358974	1.248352
00:00:00.758	1.356044	1.216850	1.266667
00:00:00.759	1.350183	1.028571	1.282051
00:00:00.759	1.334066	1.104762	1.282051
00:00:00.759	1.319414	1.313553	1.253480
00:00:00.760	1.298168	1.280586	1.283516
00:00:00.760	1.294505	1.255678	1.320879
00:00:00.761	1.293773	1.276190	1.356777
00:00:00.761	1.310623	1.108425	1.372894
00:00:00.761	1.298901	1.055678	1.362637
00:00:00.762	1.308425	1.254212	1.373626
00:00:00.762	1.321612	1.340659	1.364103
00:00:00.795	1.317216	1.336264	1.355311
00:00:00.795	1.295971	1.412454	1.339194
00:00:00.795	1.317216	1.482784	1.323810
00:00:00.795	1.301832	1.439560	1.290110
00:00:00.796	1.280586	1.386081	1.269597
00:00:00.796	1.288645	1.337729	1.252747
00:00:00.796	1.287912	1.328205	1.263004
00:00:00.798	1.289377	1.359707	1.278388
00:00:00.798	1.296703	1.402198	1.286447
00:00:00.798	1.295238	1.401465	1.290110
00:00:00.798	1.322344	1.337729	1.309890
00:00:00.798	1.343590	1.288645	1.311355
00:00:00.798	1.350916	1.227106	1.300366
00:00:00.800	1.339927	1.298901	1.328205
00:00:00.800	1.300366	1.336996	1.331868
00:00:00.800	1.274725	1.354579	1.330403
00:00:00.800	1.275458	1.364835	1.321612
00:00:00.800	1.301832	1.422711	1.322344
00:00:00.802	1.303297	1.438828	1.308425
00:00:00.802	1.325275	1.424908	1.304762
00:00:00.802	1.332601	1.329670	1.286447
00:00:00.805	1.352381	1.215385	1.302564
00:00:00.805	1.344322	1.079853	1.303297
00:00:00.805	1.342857	1.101099	1.287912
00:00:00.805	1.321612	1.213187	1.283516
00:00:00.805	1.299634	1.189011	1.276923
00:00:00.805	1.294505	1.339194	1.276923
00:00:00.805	1.306227	1.421245	1.295971
00:00:00.805	1.298901	1.427106	1.296703
00:00:00.808	1.316484	1.362637	1.308425
00:00:00.808	1.309158	1.301832	1.293040
00:00:00.808	1.314286	1.232967	1.302564
00:00:00.808	1.307692	1.276190	1.306227
00:00:00.808	1.309890	1.369231	1.307692
00:00:00.808	1.316484	1.326740	1.303297
00:00:00.808	1.309158	1.345055	1.295238
00:00:00.808	1.308425	1.397070	1.305495
00:00:00.808	1.317949	1.252015	1.307692
00:00:00.808	1.308425	1.123077	1.301832
00:00:00.808	1.319414	1.104029	1.300366
00:00:00.808	1.306960	1.144322	1.292308
00:00:00.810	1.304029	1.115751	1.298168
00:00:00.810	1.312088	1.221978	1.296703
00:00:00.811	1.314286	1.310623	1.302564
00:00:00.811	1.315751	1.401465	1.320147
00:00:00.811	1.305495	1.446154	1.309158
00:00:00.811	1.300366	1.484982	1.305495
00:00:00.811	1.321612	1.531868	1.330403
00:00:00.811	1.309158	1.456410	1.307692
00:00:00.812	1.306227	1.364835	1.310623
00:00:00.844	1.310623	1.287179	1.303297
00:00:00.845	1.306227	1.319414	1.304029
00:00:00.845	1.316484	1.424176	1.315751
00:00:00.845	1.304029	1.300366	1.282784
00:00:00.845	1.311355	1.190476	1.295971
00:00:00.846	1.325275	1.093040	1.293040
00:00:00.846	1.315018	1.224908	1.289377
00:00:00.846	1.317949	1.463736	1.284249
00:00:00.847	1.339194	1.498168	1.298168
00:00:00.847	1.323810	1.336996	1.306960
00:00:00.847	1.306960	1.200000	1.304029
00:00:00.848	1.273260	1.103297	1.303297
00:00:00.848	1.271062	1.078388	1.291575
00:00:00.849	1.285714	1.158242	1.312821
00:00:00.849	1.265201	1.210256	1.313553
00:00:00.849	1.252015	1.208791	1.309158
00:00:00.850	1.291575	1.293040	1.312821
00:00:00.850	1.304029	1.359707	1.301832
00:00:00.850	1.326740	1.460073	1.317216
00:00:00.851	1.312088	1.456410	1.306227
00:00:00.851	1.300366	1.417582	1.314286
00:00:00.851	1.308425	1.427106	1.309890
00:00:00.852	1.312088	1.462271	1.285714
00:00:00.852	1.337729	1.493040	1.290842
00:00:00.852	1.331136	1.430037	1.279853
00:00:00.853	1.336264	1.345788	1.297436
00:00:00.853	1.321612	1.234432	1.304762
00:00:00.854	1.317949	1.195604	1.290110
00:00:00.854	1.326740	1.309890	1.282051
00:00:00.854	1.323077	1.309890	1.290110
00:00:00.855	1.319414	1.284982	1.320879
00:00:00.855	1.317949	1.271795	1.340659
00:00:00.855	1.314286	1.089377	1.330403
00:00:00.856	1.312088	1.038828	1.326740
00:00:00.856	1.312088	1.200000	1.326740
00:00:00.856	1.309158	1.308425	1.309158
00:00:00.857	1.320147	1.405861	1.323077
00:00:00.857	1.304029	1.459341	1.317949
00:00:00.857	1.313553	1.473993	1.334799
00:00:00.858	1.309158	1.487912	1.329670
00:00:00.858	1.316484	1.381685	1.309890
00:00:00.859	1.296703	1.185348	1.289377
00:00:00.859	1.290842	1.106227	1.271795
00:00:00.859	1.285714	1.130403	1.281319
00:00:00.860	1.300366	1.200733	1.291575
00:00:00.860	1.295238	1.339194	1.291575
00:00:00.860	1.304029	1.405861	1.282784
00:00:00.862	1.325275	1.448352	1.297436
00:00:00.862	1.330403	1.449084	1.291575
00:00:00.862	1.312088	1.394139	1.294505
00:00:00.894	1.312821	1.314286	1.293040
00:00:00.894	1.303297	1.334799	1.300366
00:00:00.894	1.300366	1.300366	1.304029
00:00:00.895	1.300366	1.274725	1.312821
00:00:00.895	1.320879	1.316484	1.309890
00:00:00.895	1.325275	1.324542	1.298168
00:00:00.896	1.320147	1.332601	1.294505
00:00:00.896	1.322344	1.546520	1.290110
00:00:00.896	1.315018	1.435165	1.287912
00:00:00.899	1.329670	1.237363	1.292308
00:00:00.899	1.314286	1.097436	1.293773
00:00:00.901	1.316484	0.879853	1.282051
00:00:00.901	1.285714	0.883516	1.276923
00:00:00.901	1.272527	1.126007	1.295238
00:00:00.901	1.297436	1.293040	1.327473
00:00:00.901	1.289377	1.301099	1.334799
00:00:00.901	1.295971	1.402198	1.327473
00:00:00.901	1.319414	1.410989	1.309890
00:00:00.901	1.322344	1.412454	1.300366
00:00:00.901	1.314286	1.473260	1.311355
00:00:00.901	1.323077	1.453480	1.306227
00:00:00.901	1.321612	1.389744	1.311355
00:00:00.901	1.312821	1.292308	1.305495
00:00:00.905	1.320147	1.274725	1.312088
00:00:00.905	1.311355	1.242491	1.304762
00:00:00.905	1.322344	1.294505	1.310623
00:00:00.905	1.321612	1.330403	1.300366
00:00:00.905	1.312088	1.369963	1.307692
00:00:00.905	1.303297	1.372894	1.300366
00:00:00.905	1.312088	1.347253	1.299634
00:00:00.905	1.312088	1.326740	1.302564
00:00:00.905	1.317949	1.407326	1.306227
00:00:00.905	1.310623	1.539927	1.323077
00:00:00.905	1.317216	1.503297	1.323810
00:00:00.907	1.309158	1.413919	1.305495
00:00:00.907	1.316484	1.309158	1.315751
00:00:00.907	1.331136	1.298168	1.296703
00:00:00.908	1.317216	1.233700	1.296703
00:00:00.908	1.317949	1.295238	1.291575
00:00:00.908	1.295971	1.238828	1.290110
00:00:00.908	1.316484	1.084982	1.286447
00:00:00.908	1.302564	0.926740	1.286447
00:00:00.910	1.285714	1.068132	1.285714
00:00:00.910	1.294505	1.288645	1.289377
00:00:00.910	1.292308	1.381685	1.295971
00:00:00.910	1.331868	1.491575	1.317216
00:00:00.910	1.344322	1.656410	1.338462
00:00:00.911	1.311355	1.533333	1.342125
00:00:00.911	1.303297	1.241758	1.328205
00:00:00.911	1.268132	1.020513	1.298168
00:00:00.943	1.257875	0.945055	1.287912
00:00:00.944	1.274725	1.136996	1.281319
00:00:00.944	1.309158	1.273260	1.287912
00:00:00.944	1.331136	1.300366	1.298901
00:00:00.945	1.343590	1.378022	1.307692
00:00:00.945	1.339927	1.410256	1.285714
00:00:00.945	1.303297	1.301832	1.271062
00:00:00.946	1.288645	1.218315	1.276190
00:00:00.946	1.310623	1.223443	1.296703
00:00:00.947	1.346520	1.249084	1.328938
00:00:00.947	1.354579	1.282051	1.352381
00:00:00.947	1.359707	1.418315	1.353846
00:00:00.948	1.358974	1.411722	1.347253
00:00:00.948	1.320147	1.332601	1.316484
00:00:00.948	1.273993	1.375824	1.313553
00:00:00.949	1.252015	1.417582	1.325275
00:00:00.949	1.222711	1.406593	1.315018
00:00:00.949	1.208059	1.364103	1.291575
00:00:00.950	1.245421	1.339194	1.306227
00:00:00.950	1.312821	1.347985	1.309890
00:00:00.950	1.325275	1.364835	1.300366
00:00:00.951	1.326740	1.319414	1.295971
00:00:00.951	1.322344	1.262271	1.291575
00:00:00.952	1.330403	1.249084	1.303297
00:00:00.952	1.335531	1.246154	1.299634
00:00:00.952	1.330403	1.264469	1.290110
00:00:00.953	1.331868	1.272527	1.297436
00:00:00.953	1.335531	1.298901	1.304762
00:00:00.953	1.323810	1.334799	1.304762
00:00:00.954	1.331868	1.378022	1.306227
00:00:00.954	1.321612	1.502564	1.326740
00:00:00.954	1.309890	1.546520	1.323077
00:00:00.955	1.323810	1.512088	1.321612
00:00:00.955	1.309158	1.389011	1.289377
00:00:00.955	1.321612	1.269597	1.295238
00:00:00.956	1.345788	1.117949	1.300366
00:00:00.956	1.314286	1.063004	1.295971
00:00:00.957	1.302564	1.149451	1.291575
00:00:00.957	1.286447	1.219048	1.283516
00:00:00.957	1.279121	1.242491	1.295238
00:00:00.958	1.291575	1.378022	1.310623
00:00:00.958	1.295971	1.543590	1.323810
00:00:00.958	1.308425	1.713553	1.342125
00:00:00.959	1.320879	1.632967	1.358974
00:00:00.959	1.328205	1.367033	1.335531
00:00:00.959	1.343590	0.875458	1.298168
00:00:00.961	1.302564	0.418315	1.257143
00:00:00.961	1.282784	0.631502	1.263736
00:00:00.961	1.286447	1.075458	1.286447
00:00:00.963	1.339927	1.367766	1.295238
