timestamp	ch1	ch2	ch3
00:00:00.000	1.228571	1.366300	1.095971
00:00:00.002	1.260806	1.356044	1.205861
00:00:00.002	1.266667	1.275458	1.358242
00:00:00.002	1.263736	1.211722	1.363370
00:00:00.002	1.250549	1.191209	1.342125
00:00:00.002	1.327473	1.205128	1.339927
00:00:00.005	1.435165	1.269597	1.350916
00:00:00.005	1.363370	1.348718	1.341392
00:00:00.005	1.326007	1.380220	1.327473
00:00:00.005	1.322344	1.390476	1.317216
00:00:00.005	1.309158	1.378022	1.313553
00:00:00.005	1.335531	1.359707	1.327473
00:00:00.005	1.323810	1.323810	1.315751
00:00:00.008	1.239560	1.292308	1.321612
00:00:00.008	1.295238	1.249817	1.311355
00:00:00.008	1.331136	1.280586	1.312821
00:00:00.008	1.327473	1.309158	1.321612
00:00:00.008	1.334799	1.328205	1.315751
00:00:00.008	1.315018	1.332601	1.309890
00:00:00.008	1.309158	1.347985	1.310623
00:00:00.008	1.291575	1.356777	1.299634
00:00:00.008	1.300366	1.341392	1.300366
00:00:00.008	1.348718	1.290842	1.300366
00:00:00.009	1.372894	1.230769	1.309158
00:00:00.009	1.314286	1.257143	1.298168
00:00:00.009	1.272527	1.287179	1.316484
00:00:00.010	1.247619	1.282051	1.323810
00:00:00.010	1.256410	1.293040	1.308425
00:00:00.011	1.255678	1.331868	1.316484
00:00:00.011	1.260073	1.365568	1.295238
00:00:00.011	1.294505	1.367766	1.305495
00:00:00.012	1.311355	1.291575	1.309890
00:00:00.012	1.317216	1.279853	1.305495
00:00:00.012	1.409524	1.268132	1.306227
00:00:00.013	1.358242	1.259341	1.321612
00:00:00.013	1.344322	1.273993	1.329670
00:00:00.013	1.284982	1.293040	1.326740
00:00:00.014	1.276190	1.308425	1.323810
00:00:00.014	1.295238	1.352381	1.314286
00:00:00.014	1.312088	1.345055	1.315018
00:00:00.015	1.331868	1.295238	1.312088
00:00:00.015	1.320147	1.262271	1.310623
00:00:00.016	1.288645	1.284249	1.239560
00:00:00.016	1.380220	1.357509	1.159707
00:00:00.016	1.370696	1.380952	1.294505
00:00:00.017	1.312821	1.323077	1.320879
00:00:00.017	1.304029	1.261538	1.319414
00:00:00.017	1.294505	1.208059	1.336996
00:00:00.018	1.291575	1.197802	1.328205
00:00:00.018	1.303297	1.269597	1.329670
00:00:00.050	1.306960	1.350183	1.318681
00:00:00.051	1.312821	1.411722	1.292308
00:00:00.051	1.317949	1.385348	1.231502
00:00:00.052	1.302564	1.338462	1.254945
00:00:00.052	1.293040	1.309890	1.326007
00:00:00.052	1.291575	1.305495	1.288645
00:00:00.052	1.347985	1.279853	1.331136
00:00:00.053	1.335531	1.305495	1.334066
00:00:00.053	1.336996	1.306960	1.327473
00:00:00.053	1.310623	1.294505	1.332601
00:00:00.054	1.292308	1.298901	1.347253
00:00:00.054	1.300366	1.279121	1.356044
00:00:00.055	1.239560	1.215385	1.364103
00:00:00.055	1.235897	1.243956	1.370696
00:00:00.055	1.404396	1.328938	1.369963
00:00:00.056	1.405861	1.377289	1.330403
00:00:00.056	1.364103	1.384615	1.333333
00:00:00.056	1.353114	1.389744	1.358242
00:00:00.057	1.328205	1.369231	1.230037
00:00:00.057	1.345055	1.339927	1.250549
00:00:00.057	1.393407	1.383150	1.197070
00:00:00.058	1.296703	1.380220	1.150183
00:00:00.058	1.259341	1.256410	1.304029
00:00:00.058	1.224176	1.178755	1.264469
00:00:00.059	1.275458	1.195604	1.180220
00:00:00.059	1.244689	1.257875	1.185348
00:00:00.060	1.206593	1.265934	1.342125
00:00:00.060	1.276190	1.252747	1.399267
00:00:00.060	1.306227	1.227106	1.377289
00:00:00.061	1.323077	1.257875	1.304029
00:00:00.061	1.317216	1.310623	1.200733
00:00:00.061	1.303297	1.359707	1.263736
00:00:00.062	1.293040	1.404396	1.347253
00:00:00.062	1.300366	1.411722	1.356044
00:00:00.062	1.304762	1.382418	1.343590
00:00:00.063	1.321612	1.353846	1.336264
00:00:00.063	1.334066	1.304762	1.358974
00:00:00.063	1.330403	1.224908	1.354579
00:00:00.064	1.327473	1.255678	1.334066
00:00:00.064	1.320879	1.354579	1.332601
00:00:00.066	1.318681	1.413187	1.254945
00:00:00.066	1.323810	1.435897	1.220513
00:00:00.066	1.313553	1.360440	1.259341
00:00:00.066	1.315018	1.263004	1.300366
00:00:00.066	1.318681	1.214652	1.323077
00:00:00.066	1.320879	1.280586	1.295238
00:00:00.069	1.312821	1.364835	1.276923
00:00:00.069	1.323810	1.386813	1.318681
00:00:00.069	1.312821	1.306227	1.320879
00:00:00.069	1.321612	1.304029	1.328205
00:00:00.101	1.326007	1.276923	1.327473
00:00:00.101	1.315751	1.202930	1.318681
00:00:00.101	1.303297	1.169231	1.309890
00:00:00.101	1.312821	1.198535	1.310623
00:00:00.101	1.313553	1.277656	1.315751
00:00:00.104	1.307692	1.375824	1.311355
00:00:00.104	1.312821	1.354579	1.306960
00:00:00.104	1.306960	1.293773	1.295238
00:00:00.104	1.311355	1.252747	1.315751
00:00:00.104	1.309890	1.292308	1.306960
00:00:00.104	1.301099	1.253480	1.298168
00:00:00.104	1.309158	1.245421	1.309890
00:00:00.104	1.314286	1.323810	1.306960
00:00:00.105	1.312821	1.397070	1.304029
00:00:00.105	1.314286	1.421245	1.306227
00:00:00.105	1.300366	1.378022	1.304029
00:00:00.106	1.293773	1.336264	1.299634
00:00:00.106	1.312088	1.267399	1.315751
00:00:00.106	1.313553	1.241758	1.309890
00:00:00.107	1.322344	1.301099	1.309890
00:00:00.107	1.318681	1.361172	1.309158
00:00:00.107	1.317216	1.361905	1.312821
00:00:00.108	1.304762	1.329670	1.300366
00:00:00.108	1.310623	1.309158	1.306227
00:00:00.109	1.313553	1.285714	1.298168
00:00:00.109	1.306960	1.286447	1.300366
00:00:00.109	1.296703	1.270330	1.298901
00:00:00.110	1.304762	1.323810	1.297436
00:00:00.110	1.314286	1.402198	1.306960
00:00:00.110	1.313553	1.432234	1.300366
00:00:00.111	1.306227	1.334066	1.298901
00:00:00.111	1.318681	1.232234	1.306960
00:00:00.111	1.309158	1.189011	1.298901
00:00:00.112	1.310623	1.192674	1.297436
00:00:00.112	1.320147	1.257143	1.301832
00:00:00.112	1.309158	1.312821	1.300366
00:00:00.113	1.312088	1.369963	1.311355
00:00:00.113	1.312821	1.387546	1.305495
00:00:00.114	1.301832	1.323810	1.290110
00:00:00.114	1.314286	1.290110	1.306960
00:00:00.114	1.307692	1.248352	1.303297
00:00:00.115	1.312088	1.267399	1.304762
00:00:00.115	1.316484	1.285714	1.312088
00:00:00.115	1.312088	1.283516	1.304762
00:00:00.116	1.309890	1.327473	1.305495
00:00:00.116	1.312821	1.347985	1.308425
00:00:00.116	1.314286	1.334799	1.314286
00:00:00.117	1.318681	1.338462	1.308425
00:00:00.117	1.314286	1.328938	1.304762
00:00:00.117	1.300366	1.282784	1.298168
00:00:00.150	1.320147	1.301099	1.302564
00:00:00.150	1.317216	1.273260	1.305495
00:00:00.150	1.293040	1.279121	1.297436
00:00:00.151	1.319414	1.360440	1.304029
00:00:00.151	1.321612	1.397802	1.310623
00:00:00.151	1.312088	1.381685	1.314286
00:00:00.152	1.312088	1.358974	1.312088
00:00:00.152	1.309158	1.314286	1.300366
00:00:00.153	1.309158	1.290110	1.295238
00:00:00.153	1.313553	1.263004	1.306227
00:00:00.153	1.309158	1.236630	1.305495
00:00:00.154	1.303297	1.255678	1.304762
00:00:00.154	1.315018	1.304029	1.304762
00:00:00.154	1.311355	1.302564	1.307692
00:00:00.155	1.298168	1.289377	1.292308
00:00:00.155	1.310623	1.310623	1.304762
00:00:00.155	1.315751	1.298168	1.306960
00:00:00.157	1.304762	1.293773	1.309158
00:00:00.157	1.320879	1.269597	1.312088
00:00:00.157	1.312088	1.279121	1.305495
00:00:00.157	1.302564	1.334066	1.311355
00:00:00.157	1.320147	1.456410	1.309158
00:00:00.158	1.323077	1.567033	1.333333
00:00:00.158	1.318681	1.545055	1.330403
00:00:00.158	1.317949	1.437363	1.315751
00:00:00.159	1.309158	1.306960	1.306227
00:00:00.159	1.303297	1.249084	1.305495
00:00:00.159	1.309158	1.094505	1.291575
00:00:00.160	1.289377	0.918681	1.267399
00:00:00.160	1.294505	0.948718	1.282784
00:00:00.160	1.297436	1.084249	1.282784
00:00:00.161	1.309158	1.244689	1.297436
00:00:00.161	1.317216	1.303297	1.311355
00:00:00.161	1.323810	1.360440	1.312088
00:00:00.163	1.312088	1.465201	1.308425
00:00:00.163	1.313553	1.454945	1.309890
00:00:00.163	1.309890	1.388278	1.300366
00:00:00.163	1.321612	1.370696	1.314286
00:00:00.163	1.307692	1.323810	1.307692
00:00:00.164	1.316484	1.286447	1.315751
00:00:00.164	1.312088	1.318681	1.312088
00:00:00.164	1.310623	1.350183	1.309890
00:00:00.165	1.293040	1.343590	1.310623
00:00:00.165	1.312821	1.328938	1.307692
00:00:00.165	1.303297	1.343590	1.301832
00:00:00.168	1.311355	1.364103	1.312821
00:00:00.168	1.306227	1.309890	1.307692
00:00:00.168	1.306227	1.315018	1.304029
00:00:00.168	1.315751	1.339194	1.312821
00:00:00.168	1.312088	1.309890	1.300366
00:00:00.200	1.315751	1.276190	1.295238
00:00:00.200	1.320879	1.287912	1.306227
00:00:00.200	1.319414	1.257875	1.303297
00:00:00.200	1.317216	1.268864	1.307692
00:00:00.201	1.309890	1.291575	1.309890
00:00:00.201	1.314286	1.286447	1.304762
00:00:00.202	1.312088	1.320147	1.302564
00:00:00.202	1.308425	1.321612	1.295971
00:00:00.202	1.298901	1.304762	1.291575
00:00:00.203	1.311355	1.336996	1.299634
00:00:00.203	1.298901	1.316484	1.284982
00:00:00.203	1.304029	1.323077	1.298901
00:00:00.204	1.307692	1.309890	1.299634
00:00:00.204	1.307692	1.299634	1.306227
00:00:00.204	1.312821	1.315751	1.306960
00:00:00.205	1.308425	1.335531	1.307692
00:00:00.205	1.312088	1.354579	1.306960
00:00:00.205	1.312821	1.351648	1.306960
00:00:00.206	1.309890	1.333333	1.309158
00:00:00.206	1.312088	1.297436	1.300366
00:00:00.207	1.312821	1.224908	1.299634
00:00:00.207	1.319414	1.255678	1.302564
00:00:00.207	1.321612	1.332601	1.298168
00:00:00.208	1.309890	1.253480	1.300366
00:00:00.209	1.304029	1.228571	1.298901
00:00:00.209	1.320147	1.201465	1.309158
00:00:00.209	1.314286	1.219048	1.310623
00:00:00.209	1.303297	1.238828	1.305495
00:00:00.209	1.293773	1.281319	1.306960
00:00:00.210	1.309890	1.372894	1.306227
00:00:00.210	1.313553	1.402198	1.312821
00:00:00.210	1.306227	1.370696	1.310623
00:00:00.211	1.312088	1.330403	1.306960
00:00:00.211	1.312821	1.306227	1.304762
00:00:00.212	1.312088	1.308425	1.304029
00:00:00.212	1.319414	1.298901	1.306960
00:00:00.212	1.303297	1.288645	1.300366
00:00:00.213	1.315751	1.317216	1.307692
00:00:00.213	1.314286	1.357509	1.294505
00:00:00.213	1.312088	1.367766	1.307692
00:00:00.214	1.317216	1.333333	1.302564
00:00:00.214	1.304029	1.315751	1.297436
00:00:00.214	1.313553	1.311355	1.309158
00:00:00.215	1.310623	1.287179	1.303297
00:00:00.215	1.304762	1.288645	1.304029
00:00:00.215	1.304762	1.353114	1.303297
00:00:00.216	1.310623	1.378022	1.300366
00:00:00.216	1.292308	1.326007	1.295238
00:00:00.217	1.315751	1.240293	1.305495
00:00:00.217	1.308425	1.221978	1.307692
00:00:00.249	1.320147	1.276190	1.314286
00:00:00.249	1.318681	1.257143	1.304762
00:00:00.250	1.320147	1.257875	1.308425
00:00:00.250	1.314286	1.293040	1.307692
00:00:00.251	1.303297	1.295238	1.296703
00:00:00.251	1.309158	1.322344	1.304762
00:00:00.251	1.317216	1.341392	1.307692
00:00:00.252	1.306960	1.325275	1.293773
00:00:00.252	1.306227	1.323810	1.290842
00:00:00.252	1.305495	1.323810	1.292308
00:00:00.253	1.309158	1.326007	1.306960
00:00:00.253	1.306227	1.301832	1.300366
00:00:00.253	1.310623	1.306227	1.305495
00:00:00.254	1.312088	1.315751	1.306227
00:00:00.254	1.304029	1.307692	1.293773
00:00:00.254	1.310623	1.292308	1.292308
00:00:00.255	1.309890	1.311355	1.298901
00:00:00.255	1.309158	1.303297	1.287912
00:00:00.256	1.315751	1.311355	1.308425
00:00:00.256	1.314286	1.304029	1.302564
00:00:00.256	1.301099	1.297436	1.305495
00:00:00.260	1.314286	1.315018	1.300366
00:00:00.260	1.302564	1.318681	1.293773
00:00:00.260	1.309158	1.320147	1.306960
00:00:00.260	1.304029	1.298168	1.304029
00:00:00.260	1.311355	1.296703	1.300366
00:00:00.260	1.314286	1.292308	1.312821
00:00:00.260	1.306227	1.268132	1.307692
00:00:00.260	1.312088	1.270330	1.306227
00:00:00.260	1.320147	1.311355	1.314286
00:00:00.260	1.316484	1.331868	1.311355
00:00:00.261	1.297436	1.316484	1.305495
00:00:00.261	1.307692	1.328938	1.306960
00:00:00.261	1.312088	1.326740	1.304762
00:00:00.261	1.300366	1.301832	1.297436
00:00:00.265	1.306227	1.315018	1.290842
00:00:00.265	1.312088	1.314286	1.288645
00:00:00.265	1.316484	1.288645	1.303297
00:00:00.265	1.302564	1.285714	1.301099
00:00:00.265	1.314286	1.303297	1.309158
00:00:00.265	1.313553	1.291575	1.301832
00:00:00.265	1.309890	1.300366	1.310623
00:00:00.265	1.315018	1.310623	1.310623
00:00:00.265	1.309890	1.347253	1.311355
00:00:00.265	1.319414	1.374359	1.310623
00:00:00.265	1.309890	1.340659	1.301832
00:00:00.266	1.294505	1.311355	1.299634
00:00:00.266	1.309158	1.292308	1.309890
00:00:00.266	1.312088	1.241758	1.309890
00:00:00.267	1.316484	1.267399	1.306227
