timestamp	ch1	ch2	ch3
00:00:00.000	1.293773	1.320879	1.298901
00:00:00.000	1.300366	1.322344	1.306960
00:00:00.000	1.309158	1.320879	1.306227
00:00:00.001	1.315751	1.318681	1.311355
00:00:00.001	1.323077	1.307692	1.310623
00:00:00.001	1.322344	1.292308	1.302564
00:00:00.002	1.325275	1.298901	1.309890
00:00:00.002	1.325275	1.295238	1.302564
00:00:00.002	1.320147	1.290110	1.306227
00:00:00.003	1.317949	1.295238	1.304762
00:00:00.003	1.316484	1.302564	1.308425
00:00:00.003	1.300366	1.300366	1.304029
00:00:00.004	1.301832	1.320147	1.304762
00:00:00.004	1.298901	1.320879	1.295971
00:00:00.005	1.300366	1.319414	1.304029
00:00:00.005	1.317949	1.319414	1.310623
00:00:00.005	1.307692	1.316484	1.301832
00:00:00.006	1.344322	1.301099	1.298168
00:00:00.038	1.328938	1.313553	1.316484
00:00:00.038	1.312088	1.300366	1.312821
00:00:00.038	1.306227	1.300366	1.312821
00:00:00.039	1.289377	1.291575	1.312088
00:00:00.039	1.214652	1.295971	1.312088
00:00:00.040	1.211722	1.301099	1.304029
00:00:00.042	1.290842	1.300366	1.293040
00:00:00.042	1.377289	1.286447	1.252747
00:00:00.042	1.326740	1.294505	1.274725
00:00:00.042	1.353846	1.285714	1.292308
00:00:00.042	1.358974	1.295238	1.300366
00:00:00.042	1.391209	1.320147	1.312088
00:00:00.042	1.323077	1.318681	1.309890
00:00:00.042	1.274725	1.338462	1.321612
00:00:00.043	1.257875	1.329670	1.322344
00:00:00.043	1.281319	1.317949	1.311355
00:00:00.044	1.307692	1.317949	1.319414
00:00:00.044	1.312821	1.300366	1.306227
00:00:00.044	1.317949	1.300366	1.295238
00:00:00.048	1.320879	1.313553	1.284249
00:00:00.048	1.283516	1.302564	1.301832
00:00:00.048	1.353846	1.309890	1.326740
00:00:00.048	1.328938	1.312088	1.286447
00:00:00.048	1.240293	1.268864	1.269597
00:00:00.048	1.241026	1.250549	1.284982
00:00:00.048	1.388278	1.264469	1.332601
00:00:00.048	1.359707	1.298901	1.351648
00:00:00.048	1.326007	1.316484	1.389011
00:00:00.049	1.315018	1.330403	1.368498
00:00:00.049	1.299634	1.322344	1.261538
00:00:00.049	1.294505	1.318681	1.227839
00:00:00.050	1.284982	1.304762	1.283516
00:00:00.050	1.287179	1.297436	1.219048
00:00:00.050	1.289377	1.293040	1.190476
00:00:00.050	1.302564	1.299634	1.282784
00:00:00.050	1.309890	1.315751	1.320879
00:00:00.051	1.315751	1.305495	1.319414
00:00:00.051	1.320879	1.304029	1.322344
00:00:00.051	1.328938	1.298901	1.323810
00:00:00.056	1.335531	1.309158	1.320879
00:00:00.056	1.330403	1.306227	1.320147
00:00:00.056	1.321612	1.304762	1.289377
00:00:00.056	1.315751	1.315018	1.270330
00:00:00.056	1.318681	1.323077	1.306227
00:00:00.056	1.312821	1.312821	1.312821
00:00:00.056	1.291575	1.290842	1.331868
00:00:00.056	1.292308	1.282784	1.347253
00:00:00.056	1.298168	1.289377	1.306960
00:00:00.056	1.303297	1.308425	1.289377
00:00:00.056	1.302564	1.316484	1.305495
00:00:00.089	1.308425	1.317949	1.290842
00:00:00.089	1.308425	1.313553	1.287912
00:00:00.089	1.317216	1.314286	1.323810
00:00:00.089	1.307692	1.302564	1.313553
00:00:00.089	1.317949	1.298168	1.304762
00:00:00.089	1.320879	1.299634	1.309890
00:00:00.091	1.320879	1.291575	1.304762
00:00:00.091	1.316484	1.290842	1.303297
00:00:00.091	1.306227	1.290842	1.298901
00:00:00.091	1.308425	1.298901	1.297436
00:00:00.091	1.313553	1.305495	1.305495
00:00:00.091	1.298901	1.307692	1.301832
00:00:00.092	1.311355	1.323810	1.304762
00:00:00.093	1.306960	1.320879	1.309158
00:00:00.093	1.295238	1.318681	1.307692
00:00:00.093	1.290842	1.309158	1.306227
00:00:00.093	1.298901	1.314286	1.308425
00:00:00.094	1.299634	1.309890	1.297436
00:00:00.094	1.307692	1.312821	1.295971
00:00:00.094	1.304762	1.302564	1.297436
00:00:00.095	1.318681	1.305495	1.304762
00:00:00.095	1.305495	1.301832	1.307692
00:00:00.095	1.312821	1.294505	1.315751
00:00:00.096	1.331136	1.287912	1.332601
00:00:00.096	1.321612	1.281319	1.292308
00:00:00.096	1.315018	1.295238	1.298168
00:00:00.097	1.320147	1.294505	1.304029
00:00:00.097	1.300366	1.287179	1.297436
00:00:00.098	1.312088	1.301832	1.302564
00:00:00.098	1.312088	1.309158	1.297436
00:00:00.098	1.312088	1.313553	1.304029
00:00:00.099	1.308425	1.320879	1.304762
00:00:00.099	1.297436	1.316484	1.304029
00:00:00.099	1.298168	1.302564	1.298901
00:00:00.100	1.310623	1.317949	1.306227
00:00:00.100	1.312821	1.317949	1.305495
00:00:00.100	1.318681	1.303297	1.305495
00:00:00.101	1.348718	1.290842	1.305495
00:00:00.101	1.350183	1.301099	1.306960
00:00:00.101	1.355311	1.329670	1.309158
00:00:00.102	1.296703	1.320879	1.307692
00:00:00.102	1.275458	1.318681	1.318681
00:00:00.103	1.306960	1.328938	1.300366
00:00:00.103	1.294505	1.306227	1.278388
00:00:00.103	1.286447	1.288645	1.295238
00:00:00.104	1.252015	1.308425	1.311355
00:00:00.104	1.259341	1.296703	1.320879
00:00:00.104	1.301832	1.304762	1.334799
00:00:00.105	1.312088	1.301832	1.276190
00:00:00.105	1.300366	1.294505	1.248352
00:00:00.137	1.316484	1.313553	1.306960
00:00:00.138	1.313553	1.309158	1.307692
00:00:00.138	1.318681	1.315751	1.306960
00:00:00.138	1.324542	1.307692	1.312821
00:00:00.139	1.312821	1.287912	1.304029
00:00:00.139	1.321612	1.290110	1.316484
00:00:00.139	1.328205	1.284982	1.315751
00:00:00.140	1.326740	1.269597	1.297436
00:00:00.140	1.329670	1.291575	1.309158
00:00:00.140	1.321612	1.296703	1.307692
00:00:00.142	1.322344	1.309158	1.312088
00:00:00.142	1.319414	1.320879	1.304762
00:00:00.143	1.299634	1.326740	1.295238
00:00:00.143	1.309158	1.329670	1.310623
00:00:00.143	1.301099	1.318681	1.306227
00:00:00.145	1.290842	1.324542	1.305495
00:00:00.145	1.301099	1.334799	1.306227
00:00:00.145	1.306227	1.312821	1.310623
00:00:00.145	1.306227	1.302564	1.309890
00:00:00.145	1.313553	1.306960	1.304029
00:00:00.145	1.308425	1.300366	1.308425
00:00:00.145	1.315018	1.286447	1.309890
00:00:00.145	1.310623	1.272527	1.301832
00:00:00.145	1.329670	1.294505	1.311355
00:00:00.146	1.327473	1.295238	1.300366
00:00:00.146	1.326740	1.302564	1.315018
00:00:00.147	1.317949	1.299634	1.306227
00:00:00.147	1.317216	1.304762	1.300366
00:00:00.147	1.306227	1.308425	1.298168
00:00:00.148	1.302564	1.315751	1.301099
00:00:00.148	1.298168	1.324542	1.306227
00:00:00.148	1.303297	1.323077	1.308425
00:00:00.149	1.299634	1.326740	1.305495
00:00:00.149	1.303297	1.320147	1.304762
00:00:00.149	1.291575	1.304762	1.298168
00:00:00.150	1.309890	1.317216	1.306227
00:00:00.150	1.297436	1.298901	1.303297
00:00:00.150	1.318681	1.300366	1.309158
00:00:00.151	1.320147	1.289377	1.303297
00:00:00.151	1.312821	1.287179	1.302564
00:00:00.152	1.320147	1.295971	1.312088
00:00:00.152	1.321612	1.293773	1.309890
00:00:00.152	1.322344	1.302564	1.310623
00:00:00.153	1.312821	1.303297	1.304029
00:00:00.153	1.312821	1.303297	1.309158
00:00:00.153	1.309158	1.314286	1.312088
00:00:00.154	1.298901	1.311355	1.292308
00:00:00.154	1.300366	1.333333	1.308425
00:00:00.154	1.297436	1.323810	1.294505
00:00:00.155	1.288645	1.317949	1.298901
00:00:00.187	1.304762	1.319414	1.303297
00:00:00.187	1.298901	1.306960	1.290842
00:00:00.188	1.312088	1.311355	1.308425
00:00:00.188	1.322344	1.296703	1.312821
00:00:00.188	1.326007	1.293773	1.304762
00:00:00.189	1.322344	1.290110	1.310623
00:00:00.189	1.323810	1.284982	1.306227
00:00:00.189	1.321612	1.293773	1.307692
00:00:00.190	1.326007	1.311355	1.315018
00:00:00.190	1.310623	1.304762	1.304029
00:00:00.191	1.323810	1.309890	1.307692
00:00:00.191	1.308425	1.311355	1.293040
00:00:00.191	1.304762	1.326007	1.308425
00:00:00.192	1.304762	1.323077	1.305495
00:00:00.192	1.294505	1.306227	1.296703
00:00:00.192	1.302564	1.326007	1.309890
00:00:00.193	1.301099	1.326740	1.302564
00:00:00.193	1.299634	1.323077	1.306227
00:00:00.193	1.292308	1.309890	1.298901
00:00:00.194	1.303297	1.284982	1.296703
00:00:00.194	1.315018	1.274725	1.279121
00:00:00.194	1.317949	1.269597	1.282784
00:00:00.195	1.320147	1.285714	1.308425
00:00:00.195	1.323077	1.306227	1.309158
00:00:00.196	1.323810	1.326740	1.314286
00:00:00.196	1.319414	1.315751	1.310623
00:00:00.196	1.310623	1.313553	1.309890
00:00:00.197	1.309158	1.310623	1.306227
00:00:00.197	1.306227	1.309890	1.304762
00:00:00.197	1.303297	1.294505	1.302564
00:00:00.198	1.303297	1.300366	1.304029
00:00:00.198	1.299634	1.287179	1.306960
00:00:00.198	1.296703	1.297436	1.298168
00:00:00.199	1.299634	1.311355	1.298901
00:00:00.199	1.306960	1.317216	1.306227
00:00:00.199	1.312821	1.334066	1.311355
00:00:00.200	1.302564	1.324542	1.306227
00:00:00.200	1.316484	1.306227	1.309158
00:00:00.201	1.309158	1.279853	1.303297
00:00:00.201	1.323810	1.281319	1.314286
00:00:00.201	1.326740	1.284249	1.312088
00:00:00.202	1.317949	1.289377	1.306960
00:00:00.202	1.327473	1.320147	1.308425
00:00:00.202	1.328938	1.338462	1.311355
00:00:00.203	1.321612	1.313553	1.319414
00:00:00.203	1.304029	1.295238	1.297436
00:00:00.203	1.304029	1.312821	1.304762
00:00:00.204	1.303297	1.310623	1.290842
00:00:00.204	1.300366	1.336996	1.302564
00:00:00.205	1.295238	1.339927	1.300366
00:00:00.238	1.306227	1.340659	1.304029
00:00:00.238	1.304029	1.329670	1.302564
00:00:00.238	1.297436	1.307692	1.298168
00:00:00.239	1.310623	1.298168	1.290110
00:00:00.239	1.310623	1.290110	1.306960
00:00:00.239	1.323077	1.298168	1.316484
00:00:00.239	1.320879	1.296703	1.304762
00:00:00.239	1.309890	1.286447	1.300366
00:00:00.241	1.318681	1.298901	1.311355
00:00:00.241	1.309158	1.291575	1.306227
00:00:00.241	1.315018	1.298901	1.310623
00:00:00.242	1.312088	1.301832	1.297436
00:00:00.242	1.298168	1.300366	1.303297
00:00:00.242	1.307692	1.311355	1.308425
00:00:00.242	1.300366	1.306960	1.295238
00:00:00.242	1.293773	1.321612	1.298901
00:00:00.242	1.304762	1.323077	1.306960
00:00:00.248	1.296703	1.315751	1.300366
00:00:00.248	1.306960	1.324542	1.306227
00:00:00.248	1.303297	1.303297	1.297436
00:00:00.248	1.314286	1.306227	1.300366
00:00:00.248	1.317949	1.301099	1.306960
00:00:00.248	1.322344	1.303297	1.308425
00:00:00.248	1.317949	1.293773	1.303297
00:00:00.248	1.319414	1.293040	1.300366
00:00:00.248	1.314286	1.284982	1.299634
00:00:00.248	1.315751	1.301832	1.306227
00:00:00.248	1.305495	1.298168	1.307692
00:00:00.248	1.311355	1.303297	1.309158
00:00:00.248	1.303297	1.302564	1.298168
00:00:00.248	1.298901	1.320879	1.308425
00:00:00.248	1.303297	1.323077	1.311355
00:00:00.248	1.298901	1.323810	1.302564
00:00:00.248	1.298901	1.320879	1.295238
00:00:00.250	1.301832	1.328205	1.287912
00:00:00.251	1.312088	1.322344	1.287912
00:00:00.251	1.314286	1.312088	1.305495
00:00:00.251	1.314286	1.300366	1.304029
00:00:00.251	1.317216	1.299634	1.312821
00:00:00.251	1.321612	1.287912	1.310623
00:00:00.251	1.321612	1.273993	1.305495
00:00:00.251	1.326007	1.276923	1.317949
00:00:00.252	1.315018	1.284249	1.300366
00:00:00.252	1.315751	1.300366	1.310623
00:00:00.252	1.300366	1.296703	1.306227
00:00:00.253	1.315018	1.320879	1.307692
00:00:00.253	1.305495	1.326007	1.293040
00:00:00.253	1.300366	1.339194	1.306227
00:00:00.254	1.304029	1.342857	1.306227
00:00:00.254	1.290842	1.317949	1.296703
00:00:00.286	1.300366	1.309890	1.308425
00:00:00.287	1.304029	1.298168	1.308425
00:00:00.287	1.309890	1.300366	1.309158
00:00:00.287	1.306227	1.296703	1.301832
00:00:00.288	1.320147	1.296703	1.319414
00:00:00.288	1.306227	1.301099	1.295971
00:00:00.289	1.304762	1.301832	1.303297
00:00:00.289	1.323077	1.282784	1.312821
00:00:00.289	1.310623	1.271062	1.305495
00:00:00.290	1.326007	1.295971	1.309890
00:00:00.290	1.315018	1.282784	1.305495
00:00:00.290	1.303297	1.279853	1.292308
00:00:00.291	1.311355	1.316484	1.298168
00:00:00.291	1.297436	1.305495	1.279121
00:00:00.291	1.303297	1.315018	1.282784
00:00:00.292	1.300366	1.320147	1.300366
00:00:00.292	1.295238	1.328938	1.307692
00:00:00.292	1.299634	1.323810	1.318681
00:00:00.293	1.309158	1.322344	1.353114
00:00:00.293	1.309158	1.317216	1.338462
00:00:00.294	1.311355	1.323077	1.328205
00:00:00.294	1.312821	1.306960	1.265201
00:00:00.294	1.315018	1.296703	1.239560
00:00:00.295	1.323810	1.315018	1.294505
00:00:00.295	1.312821	1.289377	1.306960
00:00:00.295	1.318681	1.283516	1.312821
00:00:00.296	1.315018	1.276923	1.310623
00:00:00.296	1.318681	1.298901	1.314286
00:00:00.296	1.305495	1.293040	1.303297
00:00:00.297	1.309158	1.306960	1.315018
00:00:00.297	1.307692	1.309158	1.308425
00:00:00.297	1.304762	1.312821	1.310623
00:00:00.298	1.308425	1.325275	1.282051
00:00:00.298	1.301832	1.317949	1.278388
00:00:00.299	1.303297	1.321612	1.299634
00:00:00.299	1.300366	1.336996	1.306960
00:00:00.299	1.308425	1.329670	1.309890
00:00:00.300	1.303297	1.304762	1.300366
00:00:00.300	1.309158	1.293773	1.298168
00:00:00.300	1.323077	1.300366	1.311355
00:00:00.301	1.322344	1.290110	1.312821
00:00:00.304	1.323810	1.286447	1.304762
00:00:00.304	1.321612	1.293773	1.312821
00:00:00.304	1.311355	1.293773	1.301832
00:00:00.304	1.316484	1.305495	1.311355
00:00:00.304	1.300366	1.302564	1.308425
00:00:00.304	1.305495	1.312088	1.301832
00:00:00.304	1.302564	1.311355	1.304029
00:00:00.305	1.306227	1.319414	1.308425
00:00:00.305	1.305495	1.318681	1.308425
00:00:00.337	1.291575	1.309158	1.304029
00:00:00.337	1.301832	1.319414	1.306227
00:00:00.338	1.308425	1.317949	1.304762
00:00:00.338	1.310623	1.317216	1.304762
00:00:00.338	1.302564	1.306227	1.306227
00:00:00.338	1.308425	1.299634	1.298168
00:00:00.338	1.317216	1.303297	1.304762
00:00:00.340	1.319414	1.299634	1.306227
00:00:00.340	1.309158	1.287912	1.298168
00:00:00.340	1.321612	1.284982	1.309890
00:00:00.340	1.309890	1.265201	1.297436
00:00:00.340	1.317949	1.265934	1.305495
00:00:00.340	1.320147	1.320147	1.315751
00:00:00.345	1.311355	1.318681	1.300366
00:00:00.345	1.307692	1.314286	1.312088
00:00:00.345	1.296703	1.309890	1.309890
00:00:00.345	1.295238	1.308425	1.295238
00:00:00.345	1.288645	1.313553	1.304029
00:00:00.345	1.299634	1.316484	1.304029
00:00:00.345	1.299634	1.314286	1.298168
00:00:00.345	1.316484	1.324542	1.302564
00:00:00.345	1.315751	1.315751	1.310623
00:00:00.345	1.313553	1.301099	1.296703
00:00:00.345	1.319414	1.300366	1.305495
00:00:00.345	1.320879	1.291575	1.303297
00:00:00.345	1.317216	1.304762	1.308425
00:00:00.345	1.315018	1.296703	1.306960
00:00:00.346	1.313553	1.292308	1.303297
00:00:00.346	1.302564	1.305495	1.290842
00:00:00.346	1.305495	1.318681	1.304762
00:00:00.347	1.304762	1.306960	1.310623
00:00:00.347	1.305495	1.285714	1.309890
00:00:00.348	1.303297	1.313553	1.309158
00:00:00.348	1.308425	1.307692	1.312821
00:00:00.348	1.306960	1.295238	1.300366
00:00:00.349	1.308425	1.304029	1.299634
00:00:00.349	1.311355	1.328205	1.308425
00:00:00.349	1.309158	1.327473	1.292308
00:00:00.350	1.322344	1.328938	1.309158
00:00:00.350	1.317949	1.313553	1.299634
00:00:00.350	1.323810	1.304762	1.311355
00:00:00.351	1.328205	1.297436	1.309890
00:00:00.351	1.322344	1.299634	1.300366
00:00:00.351	1.307692	1.296703	1.306227
00:00:00.352	1.315018	1.313553	1.306960
00:00:00.352	1.311355	1.294505	1.309890
00:00:00.353	1.308425	1.302564	1.304029
00:00:00.354	1.290110	1.305495	1.301832
00:00:00.354	1.287912	1.306960	1.293040
00:00:00.354	1.298901	1.313553	1.293040
00:00:00.386	1.300366	1.313553	1.297436
00:00:00.386	1.301832	1.304762	1.306227
00:00:00.387	1.304029	1.305495	1.306960
00:00:00.387	1.306960	1.308425	1.303297
00:00:00.387	1.309158	1.312821	1.309158
00:00:00.388	1.310623	1.303297	1.302564
00:00:00.388	1.321612	1.302564	1.314286
00:00:00.388	1.318681	1.297436	1.304029
00:00:00.389	1.315751	1.290842	1.302564
00:00:00.389	1.312821	1.295238	1.311355
00:00:00.389	1.324542	1.297436	1.309158
00:00:00.390	1.311355	1.294505	1.294505
00:00:00.390	1.312088	1.304762	1.309158
00:00:00.390	1.309158	1.307692	1.306227
00:00:00.391	1.290842	1.306227	1.285714
00:00:00.391	1.304762	1.333333	1.289377
00:00:00.392	1.293040	1.336996	1.299634
00:00:00.392	1.298168	1.327473	1.305495
00:00:00.392	1.289377	1.312821	1.298168
00:00:00.393	1.306227	1.323810	1.293040
00:00:00.393	1.317216	1.320147	1.310623
00:00:00.393	1.317216	1.295238	1.306960
00:00:00.394	1.314286	1.272527	1.305495
00:00:00.394	1.320147	1.257143	1.305495
00:00:00.394	1.322344	1.275458	1.302564
00:00:00.395	1.320147	1.300366	1.309890
00:00:00.395	1.309890	1.290110	1.295238
00:00:00.395	1.317216	1.302564	1.305495
00:00:00.396	1.312088	1.320147	1.308425
00:00:00.396	1.304762	1.319414	1.304762
00:00:00.397	1.309158	1.320147	1.304029
00:00:00.397	1.304029	1.323810	1.306227
00:00:00.397	1.298901	1.314286	1.309890
00:00:00.399	1.290842	1.296703	1.303297
00:00:00.399	1.290842	1.296703	1.295971
00:00:00.399	1.293773	1.311355	1.304762
00:00:00.402	1.312088	1.303297	1.304029
00:00:00.402	1.304029	1.296703	1.310623
00:00:00.402	1.309158	1.295971	1.311355
00:00:00.402	1.309890	1.293773	1.301832
00:00:00.402	1.313553	1.296703	1.292308
00:00:00.402	1.321612	1.307692	1.303297
00:00:00.402	1.320147	1.308425	1.313553
00:00:00.402	1.315751	1.311355	1.300366
00:00:00.403	1.317949	1.312088	1.308425
00:00:00.403	1.297436	1.286447	1.291575
00:00:00.403	1.306227	1.296703	1.305495
00:00:00.403	1.309158	1.314286	1.301832
00:00:00.403	1.308425	1.323810	1.310623
00:00:00.403	1.305495	1.313553	1.296703
00:00:00.440	1.298901	1.312088	1.303297
00:00:00.440	1.303297	1.315751	1.304762
00:00:00.440	1.306227	1.320879	1.311355
00:00:00.440	1.303297	1.309890	1.300366
00:00:00.440	1.309158	1.308425	1.309158
00:00:00.440	1.313553	1.295238	1.300366
00:00:00.440	1.320879	1.304029	1.312088
00:00:00.440	1.326007	1.304762	1.308425
00:00:00.440	1.312821	1.284249	1.295971
00:00:00.440	1.319414	1.287912	1.306227
00:00:00.440	1.320147	1.295971	1.303297
00:00:00.440	1.310623	1.312821	1.309890
00:00:00.440	1.306960	1.317949	1.304762
00:00:00.440	1.300366	1.313553	1.292308
00:00:00.441	1.301832	1.308425	1.306227
00:00:00.441	1.304029	1.307692	1.304029
00:00:00.441	1.296703	1.295238	1.294505
00:00:00.442	1.315018	1.300366	1.308425
00:00:00.442	1.311355	1.302564	1.303297
00:00:00.442	1.306960	1.303297	1.307692
00:00:00.443	1.312088	1.316484	1.306960
00:00:00.443	1.317216	1.310623	1.308425
00:00:00.443	1.309890	1.303297	1.305495
00:00:00.444	1.324542	1.307692	1.309890
00:00:00.444	1.320879	1.297436	1.307692
00:00:00.444	1.312088	1.289377	1.301832
00:00:00.445	1.321612	1.300366	1.310623
00:00:00.445	1.315751	1.287912	1.305495
00:00:00.446	1.316484	1.303297	1.309158
00:00:00.446	1.317216	1.314286	1.305495
00:00:00.446	1.300366	1.311355	1.300366
00:00:00.447	1.306227	1.326740	1.305495
00:00:00.447	1.303297	1.317949	1.300366
00:00:00.447	1.291575	1.316484	1.304029
00:00:00.448	1.284249	1.308425	1.298168
00:00:00.448	1.298168	1.309890	1.294505
00:00:00.448	1.306960	1.324542	1.305495
00:00:00.449	1.311355	1.314286	1.305495
00:00:00.449	1.311355	1.313553	1.312821
00:00:00.450	1.320147	1.314286	1.306227
00:00:00.450	1.315751	1.290842	1.293773
00:00:00.450	1.326007	1.285714	1.312821
00:00:00.451	1.320147	1.284249	1.304762
00:00:00.451	1.317949	1.295238	1.309158
00:00:00.451	1.317216	1.305495	1.306227
00:00:00.452	1.315751	1.311355	1.308425
00:00:00.452	1.308425	1.309890	1.304029
00:00:00.452	1.302564	1.318681	1.305495
00:00:00.453	1.302564	1.317216	1.305495
00:00:00.453	1.303297	1.315751	1.307692
00:00:00.485	1.304029	1.306227	1.304762
00:00:00.486	1.297436	1.302564	1.300366
00:00:00.486	1.301832	1.303297	1.309158
00:00:00.486	1.298901	1.293773	1.294505
00:00:00.487	1.312088	1.309158	1.307692
00:00:00.487	1.309890	1.307692	1.308425
00:00:00.487	1.306960	1.304029	1.303297
00:00:00.488	1.317216	1.306960	1.300366
00:00:00.488	1.315018	1.310623	1.312821
00:00:00.488	1.309890	1.307692	1.312821
00:00:00.489	1.320879	1.305495	1.309890
00:00:00.490	1.309890	1.293773	1.294505
00:00:00.490	1.314286	1.301832	1.309890
00:00:00.490	1.309890	1.306960	1.303297
00:00:00.490	1.306960	1.310623	1.302564
00:00:00.491	1.309158	1.306227	1.303297
00:00:00.491	1.303297	1.306960	1.303297
00:00:00.491	1.290110	1.306227	1.302564
00:00:00.492	1.310623	1.320879	1.307692
00:00:00.492	1.301832	1.312088	1.296703
00:00:00.492	1.306960	1.299634	1.304029
00:00:00.493	1.309890	1.302564	1.305495
00:00:00.493	1.309158	1.293040	1.295238
00:00:00.495	1.315751	1.298168	1.302564
00:00:00.495	1.321612	1.307692	1.305495
00:00:00.495	1.323077	1.307692	1.297436
00:00:00.498	1.316484	1.298168	1.304762
00:00:00.498	1.321612	1.286447	1.309158
00:00:00.498	1.307692	1.285714	1.298901
00:00:00.498	1.314286	1.314286	1.310623
00:00:00.498	1.310623	1.318681	1.312088
00:00:00.498	1.306960	1.320147	1.311355
00:00:00.498	1.309158	1.326007	1.304762
00:00:00.498	1.300366	1.323810	1.304029
00:00:00.498	1.300366	1.324542	1.303297
00:00:00.499	1.307692	1.320879	1.312821
00:00:00.499	1.302564	1.312088	1.307692
00:00:00.499	1.311355	1.318681	1.304762
00:00:00.499	1.309158	1.309158	1.296703
00:00:00.499	1.313553	1.303297	1.300366
00:00:00.505	1.312821	1.294505	1.306960
00:00:00.505	1.308425	1.288645	1.295971
00:00:00.505	1.327473	1.293773	1.307692
00:00:00.505	1.325275	1.276923	1.309890
00:00:00.505	1.320147	1.276190	1.308425
00:00:00.505	1.322344	1.285714	1.315018
00:00:00.505	1.308425	1.292308	1.300366
00:00:00.505	1.312088	1.317216	1.309158
00:00:00.505	1.309890	1.343590	1.312088
00:00:00.505	1.303297	1.354579	1.309890
00:00:00.536	1.300366	1.350183	1.304762
00:00:00.536	1.297436	1.320147	1.306960
00:00:00.536	1.304029	1.312821	1.307692
00:00:00.536	1.311355	1.313553	1.303297
00:00:00.536	1.298168	1.273993	1.297436
00:00:00.537	1.312088	1.275458	1.300366
00:00:00.537	1.315018	1.287912	1.304029
00:00:00.538	1.318681	1.285714	1.304029
00:00:00.538	1.319414	1.285714	1.303297
00:00:00.538	1.322344	1.293040	1.308425
00:00:00.539	1.321612	1.302564	1.308425
00:00:00.539	1.316484	1.285714	1.295971
00:00:00.539	1.307692	1.281319	1.297436
00:00:00.540	1.318681	1.314286	1.304762
00:00:00.540	1.301099	1.313553	1.307692
00:00:00.540	1.304029	1.323810	1.306227
00:00:00.541	1.305495	1.325275	1.306227
00:00:00.541	1.295238	1.312821	1.297436
00:00:00.542	1.293040	1.312088	1.297436
00:00:00.542	1.304762	1.327473	1.308425
00:00:00.542	1.308425	1.321612	1.310623
00:00:00.543	1.311355	1.318681	1.304762
00:00:00.543	1.301832	1.295971	1.298168
00:00:00.543	1.313553	1.283516	1.297436
00:00:00.544	1.319414	1.292308	1.315018
00:00:00.544	1.318681	1.291575	1.309890
00:00:00.544	1.311355	1.287912	1.305495
00:00:00.545	1.328205	1.297436	1.308425
00:00:00.545	1.320147	1.302564	1.315751
00:00:00.545	1.312088	1.302564	1.299634
00:00:00.546	1.309890	1.314286	1.306227
00:00:00.546	1.302564	1.312821	1.304029
00:00:00.546	1.301832	1.320147	1.309890
00:00:00.547	1.302564	1.324542	1.306960
00:00:00.547	1.305495	1.323077	1.304029
00:00:00.548	1.300366	1.323077	1.312821
00:00:00.548	1.300366	1.315018	1.307692
00:00:00.548	1.304029	1.301099	1.306227
00:00:00.549	1.317216	1.316484	1.309158
00:00:00.549	1.306227	1.300366	1.302564
00:00:00.549	1.320879	1.306960	1.312821
00:00:00.550	1.312088	1.293040	1.308425
00:00:00.550	1.319414	1.296703	1.312088
00:00:00.550	1.323810	1.293040	1.312088
00:00:00.551	1.324542	1.287912	1.308425
00:00:00.551	1.319414	1.295238	1.307692
00:00:00.551	1.303297	1.296703	1.303297
00:00:00.552	1.301099	1.300366	1.301832
00:00:00.552	1.298168	1.320147	1.304029
00:00:00.553	1.309890	1.329670	1.309158
00:00:00.585	1.300366	1.320879	1.308425
00:00:00.585	1.304762	1.315751	1.304762
00:00:00.585	1.307692	1.317949	1.309158
00:00:00.586	1.298168	1.287912	1.293040
00:00:00.586	1.312088	1.314286	1.307692
00:00:00.587	1.309158	1.312088	1.306960
00:00:00.587	1.316484	1.303297	1.308425
00:00:00.587	1.321612	1.305495	1.308425
00:00:00.588	1.317216	1.289377	1.299634
00:00:00.588	1.315751	1.296703	1.312088
00:00:00.588	1.311355	1.287912	1.293773
00:00:00.589	1.316484	1.299634	1.299634
00:00:00.589	1.321612	1.303297	1.304762
00:00:00.589	1.306227	1.303297	1.303297
00:00:00.591	1.299634	1.307692	1.307692
00:00:00.591	1.308425	1.320879	1.307692
00:00:00.591	1.303297	1.317216	1.300366
00:00:00.592	1.287912	1.307692	1.302564
00:00:00.592	1.296703	1.310623	1.298168
00:00:00.592	1.294505	1.309890	1.299634
00:00:00.592	1.298168	1.309890	1.304029
00:00:00.592	1.301832	1.306960	1.298901
00:00:00.594	1.317949	1.302564	1.308425
00:00:00.594	1.308425	1.279853	1.298168
00:00:00.594	1.323077	1.317216	1.317949
00:00:00.595	1.328205	1.312821	1.310623
00:00:00.595	1.316484	1.289377	1.306227
00:00:00.595	1.317216	1.295971	1.302564
00:00:00.595	1.317949	1.318681	1.308425
00:00:00.595	1.303297	1.297436	1.303297
00:00:00.595	1.309890	1.300366	1.305495
00:00:00.601	1.305495	1.288645	1.306960
00:00:00.601	1.311355	1.295238	1.305495
00:00:00.601	1.309890	1.299634	1.312088
00:00:00.601	1.298901	1.299634	1.308425
00:00:00.601	1.310623	1.324542	1.304029
00:00:00.601	1.309158	1.324542	1.299634
00:00:00.601	1.295971	1.320879	1.299634
00:00:00.601	1.310623	1.326740	1.306960
00:00:00.601	1.304762	1.300366	1.300366
00:00:00.601	1.305495	1.294505	1.298168
00:00:00.601	1.309158	1.290842	1.300366
00:00:00.601	1.315751	1.294505	1.311355
00:00:00.601	1.309158	1.294505	1.302564
00:00:00.601	1.314286	1.301832	1.298168
00:00:00.601	1.319414	1.305495	1.306960
00:00:00.601	1.316484	1.312821	1.304762
00:00:00.602	1.303297	1.300366	1.298901
00:00:00.602	1.305495	1.318681	1.304762
00:00:00.602	1.304762	1.312821	1.298168
00:00:00.634	1.298901	1.320147	1.306960
00:00:00.635	1.309158	1.328205	1.308425
00:00:00.635	1.292308	1.312821	1.303297
00:00:00.636	1.299634	1.309890	1.299634
00:00:00.636	1.309158	1.304762	1.306960
00:00:00.636	1.309890	1.293040	1.296703
00:00:00.637	1.320879	1.298168	1.310623
00:00:00.637	1.313553	1.288645	1.306960
00:00:00.637	1.315751	1.290110	1.306960
00:00:00.638	1.323810	1.306227	1.306960
00:00:00.638	1.315751	1.315018	1.307692
00:00:00.638	1.324542	1.320147	1.310623
00:00:00.639	1.313553	1.304762	1.305495
00:00:00.639	1.312821	1.306227	1.304762
00:00:00.639	1.305495	1.305495	1.295238
00:00:00.640	1.309158	1.323810	1.309158
00:00:00.640	1.304762	1.323810	1.304762
00:00:00.641	1.303297	1.334799	1.312821
00:00:00.641	1.294505	1.320147	1.305495
00:00:00.641	1.291575	1.299634	1.296703
00:00:00.642	1.304029	1.298168	1.304762
00:00:00.642	1.295971	1.284982	1.309158
00:00:00.642	1.314286	1.292308	1.304762
00:00:00.643	1.319414	1.294505	1.308425
00:00:00.643	1.319414	1.287912	1.303297
00:00:00.643	1.319414	1.287179	1.303297
00:00:00.644	1.321612	1.273260	1.310623
00:00:00.644	1.320147	1.288645	1.298168
00:00:00.644	1.314286	1.292308	1.306227
00:00:00.645	1.317216	1.298168	1.302564
00:00:00.645	1.309890	1.303297	1.306227
00:00:00.646	1.306960	1.305495	1.302564
00:00:00.647	1.307692	1.323077	1.305495
00:00:00.647	1.293773	1.325275	1.299634
00:00:00.647	1.310623	1.334066	1.303297
00:00:00.647	1.298901	1.312821	1.293773
00:00:00.647	1.306960	1.328205	1.312088
00:00:00.648	1.312088	1.314286	1.304029
00:00:00.648	1.313553	1.312088	1.309158
00:00:00.648	1.316484	1.315018	1.309158
00:00:00.650	1.317949	1.306960	1.309158
00:00:00.650	1.312821	1.297436	1.315751
00:00:00.650	1.325275	1.297436	1.309158
00:00:00.650	1.318681	1.297436	1.302564
00:00:00.650	1.318681	1.300366	1.306227
00:00:00.651	1.315018	1.302564	1.309890
00:00:00.652	1.312088	1.303297	1.298901
00:00:00.652	1.312821	1.317949	1.309158
00:00:00.652	1.309890	1.320879	1.304029
00:00:00.652	1.300366	1.317216	1.304762
00:00:00.684	1.309158	1.316484	1.305495
00:00:00.686	1.298901	1.298901	1.284982
00:00:00.686	1.300366	1.300366	1.292308
00:00:00.686	1.302564	1.305495	1.300366
00:00:00.686	1.301099	1.311355	1.307692
00:00:00.686	1.307692	1.298901	1.306227
00:00:00.686	1.318681	1.290110	1.306960
00:00:00.688	1.319414	1.316484	1.306960
00:00:00.688	1.314286	1.319414	1.314286
00:00:00.688	1.320147	1.297436	1.293773
00:00:00.689	1.323810	1.309158	1.310623
00:00:00.689	1.317949	1.299634	1.310623
00:00:00.689	1.309158	1.290842	1.302564
00:00:00.689	1.315018	1.303297	1.305495
00:00:00.690	1.315018	1.312088	1.300366
00:00:00.690	1.308425	1.301099	1.304762
00:00:00.690	1.306227	1.303297	1.309890
00:00:00.690	1.301099	1.312088	1.306960
00:00:00.696	1.304029	1.308425	1.312821
00:00:00.696	1.305495	1.319414	1.305495
00:00:00.696	1.295971	1.310623	1.306227
00:00:00.696	1.309890	1.319414	1.311355
00:00:00.696	1.306227	1.309890	1.304762
00:00:00.696	1.305495	1.300366	1.304029
00:00:00.696	1.319414	1.304762	1.305495
00:00:00.696	1.308425	1.292308	1.291575
00:00:00.696	1.316484	1.293773	1.304029
00:00:00.696	1.326740	1.299634	1.310623
00:00:00.696	1.315018	1.299634	1.304762
00:00:00.696	1.318681	1.306960	1.312088
00:00:00.696	1.317949	1.306960	1.310623
00:00:00.696	1.308425	1.306227	1.302564
00:00:00.696	1.310623	1.312088	1.306960
00:00:00.696	1.304762	1.315018	1.302564
00:00:00.696	1.304762	1.305495	1.295238
00:00:00.697	1.309158	1.322344	1.306227
00:00:00.697	1.309158	1.330403	1.304762
00:00:00.697	1.312088	1.321612	1.302564
00:00:00.698	1.301099	1.302564	1.298168
00:00:00.699	1.313553	1.297436	1.302564
00:00:00.699	1.322344	1.298901	1.307692
00:00:00.699	1.317216	1.299634	1.304762
00:00:00.699	1.317216	1.309890	1.313553
00:00:00.700	1.314286	1.300366	1.300366
00:00:00.700	1.309890	1.284249	1.297436
00:00:00.700	1.320879	1.297436	1.306227
00:00:00.701	1.317216	1.307692	1.310623
00:00:00.701	1.306960	1.303297	1.304762
00:00:00.701	1.312088	1.315751	1.312821
00:00:00.702	1.304029	1.309890	1.305495
00:00:00.734	1.306960	1.318681	1.304029
00:00:00.734	1.308425	1.318681	1.300366
00:00:00.735	1.304029	1.317949	1.298168
00:00:00.735	1.308425	1.317216	1.305495
00:00:00.735	1.307692	1.306227	1.303297
00:00:00.736	1.314286	1.295238	1.306960
00:00:00.736	1.312821	1.298901	1.303297
00:00:00.736	1.315751	1.295238	1.304029
00:00:00.737	1.317949	1.302564	1.309158
00:00:00.737	1.323810	1.311355	1.312821
00:00:00.737	1.318681	1.313553	1.300366
00:00:00.738	1.318681	1.306960	1.306227
00:00:00.738	1.313553	1.309158	1.312821
00:00:00.739	1.309158	1.296703	1.295238
00:00:00.739	1.306227	1.296703	1.297436
00:00:00.739	1.307692	1.315018	1.307692
00:00:00.740	1.302564	1.317216	1.303297
00:00:00.740	1.304762	1.326007	1.313553
00:00:00.740	1.307692	1.320879	1.304029
00:00:00.741	1.306227	1.320147	1.305495
00:00:00.741	1.293773	1.314286	1.308425
00:00:00.741	1.307692	1.308425	1.307692
00:00:00.742	1.294505	1.289377	1.301832
00:00:00.742	1.317949	1.295971	1.315018
00:00:00.742	1.315018	1.286447	1.296703
00:00:00.743	1.314286	1.293040	1.300366
00:00:00.743	1.321612	1.295971	1.306227
00:00:00.744	1.320147	1.299634	1.312088
00:00:00.744	1.323810	1.302564	1.306960
00:00:00.744	1.311355	1.304029	1.302564
00:00:00.745	1.311355	1.306960	1.311355
00:00:00.745	1.313553	1.309890	1.306227
00:00:00.745	1.300366	1.312821	1.306227
00:00:00.746	1.303297	1.316484	1.306227
00:00:00.746	1.299634	1.320147	1.302564
00:00:00.746	1.298168	1.323810	1.304762
00:00:00.747	1.303297	1.322344	1.306227
00:00:00.747	1.308425	1.314286	1.300366
00:00:00.747	1.309158	1.317949	1.312088
00:00:00.748	1.312088	1.306227	1.312821
00:00:00.748	1.294505	1.284249	1.295238
00:00:00.749	1.320879	1.295238	1.310623
00:00:00.749	1.315018	1.296703	1.304762
00:00:00.749	1.317216	1.298901	1.310623
00:00:00.750	1.322344	1.304029	1.311355
00:00:00.750	1.304029	1.284982	1.299634
00:00:00.752	1.317216	1.300366	1.306227
00:00:00.752	1.310623	1.294505	1.295971
00:00:00.752	1.315751	1.310623	1.309158
00:00:00.752	1.312088	1.327473	1.312088
00:00:00.785	1.306960	1.326007	1.306960
00:00:00.785	1.306227	1.335531	1.308425
00:00:00.785	1.307692	1.323077	1.305495
00:00:00.785	1.307692	1.318681	1.306960
00:00:00.785	1.304029	1.305495	1.300366
00:00:00.785	1.307692	1.303297	1.303297
00:00:00.787	1.310623	1.304762	1.304029
00:00:00.787	1.318681	1.296703	1.306227
00:00:00.787	1.314286	1.293773	1.304029
00:00:00.787	1.319414	1.306960	1.305495
00:00:00.787	1.316484	1.294505	1.295971
00:00:00.792	1.321612	1.297436	1.301099
00:00:00.792	1.318681	1.295971	1.306960
00:00:00.792	1.305495	1.288645	1.293040
00:00:00.792	1.315751	1.309158	1.309158
00:00:00.792	1.308425	1.309890	1.304029
00:00:00.792	1.306960	1.309890	1.312821
00:00:00.792	1.307692	1.315018	1.307692
00:00:00.792	1.304029	1.304762	1.308425
00:00:00.792	1.306960	1.298168	1.304029
00:00:00.792	1.290842	1.299634	1.294505
00:00:00.792	1.300366	1.321612	1.308425
00:00:00.792	1.313553	1.323077	1.307692
00:00:00.792	1.308425	1.320147	1.304029
00:00:00.792	1.311355	1.308425	1.300366
00:00:00.793	1.301832	1.296703	1.300366
00:00:00.793	1.314286	1.287179	1.301832
00:00:00.793	1.317216	1.262271	1.300366
00:00:00.794	1.326740	1.269597	1.302564
00:00:00.794	1.317949	1.289377	1.302564
00:00:00.794	1.304762	1.293040	1.295238
00:00:00.795	1.314286	1.312088	1.311355
