timestamp	ch1	ch2	ch3
00:00:00.000	1.305495	1.335531	1.304029
00:00:00.001	1.298168	1.324542	1.302564
00:00:00.001	1.297436	1.317949	1.310623
00:00:00.001	1.294505	1.313553	1.315751
00:00:00.002	1.280586	1.280586	1.300366
00:00:00.002	1.298168	1.304762	1.316484
00:00:00.002	1.302564	1.306960	1.295971
00:00:00.003	1.312088	1.315751	1.304029
00:00:00.003	1.328205	1.316484	1.307692
00:00:00.004	1.320879	1.307692	1.298901
00:00:00.004	1.336996	1.311355	1.290110
00:00:00.004	1.334799	1.310623	1.300366
00:00:00.005	1.328938	1.304762	1.300366
00:00:00.005	1.333333	1.304762	1.309158
00:00:00.005	1.323077	1.301099	1.301832
00:00:00.006	1.317216	1.300366	1.302564
00:00:00.006	1.306227	1.298901	1.309890
00:00:00.006	1.301832	1.301832	1.306960
00:00:00.007	1.295971	1.309890	1.306960
00:00:00.007	1.281319	1.313553	1.293773
00:00:00.007	1.286447	1.338462	1.300366
00:00:00.008	1.295238	1.329670	1.310623
00:00:00.008	1.300366	1.311355	1.309890
00:00:00.009	1.298901	1.295971	1.294505
00:00:00.009	1.312088	1.292308	1.314286
00:00:00.009	1.320879	1.279121	1.307692
00:00:00.010	1.329670	1.271062	1.309890
00:00:00.010	1.336264	1.287179	1.312088
00:00:00.010	1.338462	1.298168	1.303297
00:00:00.043	1.331136	1.308425	1.303297
00:00:00.043	1.334066	1.320879	1.312821
00:00:00.043	1.322344	1.317949	1.311355
00:00:00.044	1.312088	1.316484	1.306227
00:00:00.044	1.305495	1.327473	1.305495
00:00:00.044	1.300366	1.326740	1.312088
00:00:00.045	1.291575	1.309158	1.298901
00:00:00.045	1.291575	1.317949	1.303297
00:00:00.045	1.287912	1.317216	1.303297
00:00:00.046	1.293773	1.324542	1.303297
00:00:00.047	1.302564	1.320879	1.306960
00:00:00.047	1.303297	1.298168	1.312821
00:00:00.047	1.305495	1.284982	1.303297
00:00:00.047	1.322344	1.294505	1.308425
00:00:00.048	1.332601	1.305495	1.307692
00:00:00.048	1.334066	1.296703	1.306960
00:00:00.048	1.331868	1.306960	1.306960
00:00:00.049	1.330403	1.302564	1.308425
00:00:00.049	1.332601	1.313553	1.303297
00:00:00.049	1.325275	1.304762	1.300366
00:00:00.050	1.309158	1.301832	1.306960
00:00:00.050	1.300366	1.302564	1.295238
00:00:00.050	1.293773	1.311355	1.309158
00:00:00.051	1.294505	1.316484	1.309890
00:00:00.051	1.298168	1.314286	1.299634
00:00:00.051	1.282784	1.297436	1.306227
00:00:00.052	1.295238	1.317216	1.302564
00:00:00.052	1.296703	1.310623	1.293773
00:00:00.053	1.309158	1.324542	1.312821
00:00:00.053	1.310623	1.313553	1.304029
00:00:00.053	1.315018	1.295238	1.295238
00:00:00.054	1.326740	1.301099	1.310623
00:00:00.054	1.334799	1.296703	1.304029
00:00:00.054	1.321612	1.276190	1.307692
00:00:00.055	1.340659	1.293773	1.309890
00:00:00.055	1.322344	1.304029	1.305495
00:00:00.055	1.316484	1.304029	1.306227
00:00:00.057	1.310623	1.309158	1.305495
00:00:00.057	1.295971	1.312821	1.305495
00:00:00.057	1.288645	1.334066	1.304762
00:00:00.057	1.285714	1.323810	1.304762
00:00:00.057	1.288645	1.315751	1.300366
00:00:00.059	1.295971	1.312088	1.306960
00:00:00.059	1.295238	1.306960	1.306227
00:00:00.059	1.300366	1.303297	1.307692
00:00:00.059	1.309158	1.301832	1.310623
00:00:00.059	1.315018	1.298168	1.304762
00:00:00.059	1.329670	1.305495	1.311355
00:00:00.060	1.334799	1.312088	1.309158
00:00:00.060	1.338462	1.317949	1.306960
00:00:00.093	1.333333	1.306960	1.307692
00:00:00.093	1.329670	1.298168	1.304029
00:00:00.093	1.330403	1.306227	1.311355
00:00:00.093	1.309890	1.301832	1.305495
00:00:00.096	1.305495	1.309890	1.300366
00:00:00.096	1.287912	1.298168	1.298901
00:00:00.096	1.292308	1.303297	1.304762
00:00:00.096	1.293040	1.316484	1.305495
00:00:00.096	1.282051	1.311355	1.295971
00:00:00.096	1.273993	1.306227	1.295238
00:00:00.096	1.288645	1.309890	1.306227
00:00:00.096	1.285714	1.293040	1.305495
00:00:00.097	1.299634	1.290842	1.309890
00:00:00.097	1.314286	1.296703	1.309158
00:00:00.097	1.323810	1.290110	1.309158
00:00:00.098	1.342857	1.292308	1.311355
00:00:00.098	1.346520	1.300366	1.309158
00:00:00.099	1.344322	1.304762	1.306227
00:00:00.099	1.338462	1.311355	1.314286
00:00:00.099	1.319414	1.303297	1.309158
00:00:00.099	1.315751	1.304762	1.305495
00:00:00.100	1.306227	1.317216	1.311355
00:00:00.100	1.300366	1.317216	1.309890
00:00:00.100	1.299634	1.345055	1.312821
00:00:00.101	1.284982	1.333333	1.300366
00:00:00.101	1.293773	1.335531	1.306227
00:00:00.102	1.282051	1.312821	1.304762
00:00:00.102	1.299634	1.319414	1.306960
00:00:00.102	1.299634	1.305495	1.302564
00:00:00.103	1.297436	1.280586	1.297436
00:00:00.103	1.323077	1.282784	1.302564
00:00:00.103	1.323077	1.285714	1.306227
00:00:00.104	1.336996	1.287179	1.309890
00:00:00.104	1.338462	1.292308	1.312088
00:00:00.104	1.339194	1.301099	1.312088
00:00:00.105	1.327473	1.325275	1.309890
00:00:00.105	1.325275	1.334799	1.306960
00:00:00.105	1.309890	1.314286	1.291575
00:00:00.106	1.302564	1.317949	1.300366
00:00:00.106	1.295238	1.306960	1.301832
00:00:00.107	1.288645	1.289377	1.300366
00:00:00.107	1.293040	1.299634	1.309158
00:00:00.107	1.286447	1.287912	1.312088
00:00:00.108	1.291575	1.302564	1.306227
00:00:00.108	1.303297	1.304029	1.309890
00:00:00.108	1.305495	1.297436	1.306960
00:00:00.109	1.319414	1.302564	1.309890
00:00:00.109	1.328938	1.302564	1.302564
00:00:00.109	1.334066	1.304029	1.298168
00:00:00.110	1.336996	1.300366	1.300366
00:00:00.142	1.334066	1.309890	1.304029
00:00:00.142	1.331136	1.304762	1.298901
00:00:00.143	1.316484	1.297436	1.304762
00:00:00.143	1.318681	1.312821	1.311355
00:00:00.143	1.313553	1.303297	1.294505
00:00:00.144	1.291575	1.311355	1.308425
00:00:00.144	1.298901	1.329670	1.312088
00:00:00.144	1.290842	1.334066	1.308425
00:00:00.145	1.283516	1.328205	1.300366
00:00:00.145	1.279853	1.316484	1.298901
00:00:00.146	1.288645	1.322344	1.292308
00:00:00.146	1.302564	1.328938	1.314286
00:00:00.146	1.309158	1.328205	1.315018
00:00:00.147	1.307692	1.318681	1.304762
00:00:00.147	1.320879	1.331136	1.314286
00:00:00.147	1.330403	1.309158	1.312088
00:00:00.148	1.323810	1.287912	1.303297
00:00:00.148	1.335531	1.276190	1.312821
00:00:00.148	1.328205	1.238095	1.299634
00:00:00.149	1.317949	1.257143	1.302564
00:00:00.149	1.317949	1.268132	1.309158
00:00:00.149	1.313553	1.252747	1.307692
00:00:00.150	1.303297	1.285714	1.304762
00:00:00.150	1.302564	1.322344	1.308425
00:00:00.152	1.291575	1.334799	1.307692
00:00:00.152	1.282051	1.327473	1.293773
00:00:00.152	1.292308	1.334799	1.306960
00:00:00.152	1.301099	1.328938	1.298901
00:00:00.152	1.302564	1.324542	1.295238
00:00:00.152	1.312088	1.319414	1.289377
00:00:00.155	1.311355	1.306227	1.294505
00:00:00.155	1.320879	1.317216	1.308425
00:00:00.155	1.330403	1.323810	1.315018
00:00:00.155	1.322344	1.316484	1.315018
00:00:00.155	1.320879	1.311355	1.310623
00:00:00.155	1.336996	1.309890	1.309158
00:00:00.155	1.329670	1.320147	1.315018
00:00:00.155	1.312088	1.332601	1.304029
00:00:00.157	1.299634	1.313553	1.306227
00:00:00.157	1.300366	1.280586	1.305495
00:00:00.157	1.293773	1.279853	1.309158
00:00:00.157	1.293040	1.273993	1.300366
00:00:00.157	1.293773	1.274725	1.304762
00:00:00.157	1.294505	1.302564	1.306960
00:00:00.160	1.304762	1.344322	1.304762
00:00:00.160	1.315018	1.358974	1.304762
00:00:00.160	1.306960	1.331136	1.294505
00:00:00.160	1.323810	1.309890	1.295238
00:00:00.160	1.325275	1.292308	1.304762
00:00:00.160	1.325275	1.273260	1.306960
00:00:00.192	1.346520	1.259341	1.317949
00:00:00.192	1.333333	1.253480	1.306227
00:00:00.192	1.321612	1.296703	1.303297
00:00:00.193	1.315751	1.307692	1.306960
00:00:00.193	1.304029	1.306227	1.297436
00:00:00.193	1.298168	1.312821	1.302564
00:00:00.194	1.293040	1.317949	1.304762
00:00:00.194	1.292308	1.334066	1.309158
00:00:00.194	1.295971	1.340659	1.309158
00:00:00.195	1.295971	1.327473	1.302564
00:00:00.195	1.303297	1.320879	1.306227
00:00:00.196	1.298168	1.311355	1.304762
00:00:00.196	1.302564	1.305495	1.308425
00:00:00.196	1.314286	1.303297	1.305495
00:00:00.197	1.328938	1.301099	1.309158
00:00:00.197	1.321612	1.293040	1.306227
00:00:00.197	1.335531	1.309158	1.313553
00:00:00.198	1.337729	1.306960	1.300366
00:00:00.198	1.320147	1.310623	1.301832
00:00:00.198	1.327473	1.312821	1.306227
00:00:00.199	1.318681	1.307692	1.306960
00:00:00.199	1.314286	1.310623	1.307692
00:00:00.200	1.297436	1.313553	1.309158
00:00:00.200	1.300366	1.315018	1.304029
00:00:00.200	1.284982	1.304762	1.295238
00:00:00.201	1.285714	1.310623	1.295238
00:00:00.201	1.288645	1.339927	1.308425
00:00:00.201	1.292308	1.343590	1.306227
00:00:00.202	1.293040	1.323810	1.290842
00:00:00.202	1.309158	1.306960	1.306960
00:00:00.202	1.320879	1.289377	1.309158
00:00:00.203	1.331136	1.284249	1.312088
00:00:00.203	1.338462	1.283516	1.311355
00:00:00.203	1.336264	1.258608	1.297436
00:00:00.204	1.331136	1.266667	1.304029
00:00:00.204	1.332601	1.279853	1.309158
00:00:00.205	1.336264	1.316484	1.312821
00:00:00.205	1.306227	1.317216	1.302564
00:00:00.205	1.312088	1.298168	1.312821
00:00:00.206	1.293773	1.270330	1.297436
00:00:00.206	1.289377	1.298168	1.305495
00:00:00.206	1.289377	1.306227	1.295238
00:00:00.207	1.284982	1.330403	1.296703
00:00:00.207	1.292308	1.351648	1.308425
00:00:00.207	1.301099	1.361905	1.306960
00:00:00.208	1.304029	1.352381	1.295971
00:00:00.208	1.311355	1.369231	1.311355
00:00:00.208	1.323077	1.346520	1.312088
00:00:00.209	1.326740	1.293773	1.304762
00:00:00.209	1.334066	1.275458	1.307692
00:00:00.241	1.332601	1.255678	1.304029
00:00:00.242	1.326740	1.248352	1.312821
00:00:00.242	1.323077	1.246886	1.315751
00:00:00.242	1.312821	1.229304	1.301832
00:00:00.243	1.315018	1.283516	1.298901
00:00:00.243	1.304029	1.333333	1.315018
00:00:00.243	1.292308	1.326007	1.304762
00:00:00.244	1.284249	1.331868	1.306227
00:00:00.244	1.287179	1.328205	1.311355
00:00:00.245	1.279853	1.320147	1.307692
00:00:00.245	1.282784	1.323077	1.312821
00:00:00.245	1.287179	1.358974	1.310623
00:00:00.247	1.304762	1.402930	1.312821
00:00:00.247	1.317949	1.390476	1.315018
00:00:00.247	1.326740	1.340659	1.309158
00:00:00.247	1.329670	1.290842	1.309890
00:00:00.247	1.339927	1.247619	1.306227
00:00:00.247	1.342125	1.208791	1.300366
00:00:00.250	1.339194	1.184615	1.303297
00:00:00.250	1.332601	1.164835	1.293773
00:00:00.250	1.312088	1.210256	1.294505
00:00:00.250	1.313553	1.318681	1.306960
00:00:00.250	1.312088	1.350183	1.309890
00:00:00.250	1.300366	1.348718	1.293773
00:00:00.250	1.288645	1.353846	1.297436
00:00:00.250	1.280586	1.391209	1.298901
00:00:00.252	1.291575	1.389744	1.304029
00:00:00.252	1.291575	1.378022	1.312088
00:00:00.252	1.301099	1.360440	1.311355
00:00:00.252	1.307692	1.320879	1.315751
00:00:00.252	1.306227	1.276190	1.300366
00:00:00.252	1.339927	1.270330	1.310623
00:00:00.255	1.337729	1.249084	1.305495
00:00:00.255	1.327473	1.183150	1.298168
00:00:00.255	1.342857	1.252747	1.291575
00:00:00.255	1.336264	1.286447	1.302564
00:00:00.255	1.325275	1.313553	1.304762
00:00:00.255	1.316484	1.302564	1.295238
00:00:00.256	1.322344	1.331868	1.312088
00:00:00.256	1.295238	1.343590	1.315018
00:00:00.256	1.293040	1.349451	1.308425
00:00:00.256	1.284249	1.322344	1.301832
00:00:00.256	1.287912	1.343590	1.312821
00:00:00.257	1.292308	1.350183	1.312088
00:00:00.257	1.296703	1.336996	1.309158
00:00:00.257	1.299634	1.311355	1.305495
00:00:00.258	1.314286	1.293040	1.306960
00:00:00.258	1.329670	1.289377	1.308425
00:00:00.259	1.320879	1.278388	1.301832
00:00:00.259	1.324542	1.270330	1.295971
00:00:00.291	1.320879	1.288645	1.274725
00:00:00.291	1.322344	1.306227	1.299634
00:00:00.292	1.329670	1.306227	1.337729
00:00:00.292	1.335531	1.309890	1.339194
00:00:00.292	1.312088	1.336264	1.286447
00:00:00.293	1.320879	1.402930	1.283516
00:00:00.293	1.311355	1.389011	1.296703
00:00:00.294	1.304029	1.369963	1.304762
00:00:00.294	1.299634	1.397802	1.315751
00:00:00.294	1.319414	1.397802	1.336996
00:00:00.295	1.328205	1.345055	1.326007
00:00:00.295	1.317949	1.309890	1.320879
00:00:00.295	1.309158	1.328938	1.317216
00:00:00.296	1.294505	1.306227	1.304762
00:00:00.296	1.281319	1.252015	1.295971
00:00:00.296	1.259341	1.117216	1.255678
00:00:00.297	1.250549	1.103297	1.253480
00:00:00.297	1.300366	1.263736	1.279853
00:00:00.297	1.304029	1.312088	1.281319
00:00:00.298	1.287179	1.233700	1.284249
00:00:00.298	1.276923	1.195604	1.301832
00:00:00.299	1.265934	1.197802	1.323077
00:00:00.299	1.287179	1.276923	1.342125
00:00:00.299	1.312821	1.279121	1.337729
00:00:00.300	1.337729	1.272527	1.339194
00:00:00.300	1.330403	1.386081	1.325275
00:00:00.300	1.325275	1.490842	1.336264
00:00:00.301	1.323077	1.395604	1.315751
00:00:00.301	1.315751	1.308425	1.303297
00:00:00.301	1.307692	1.251282	1.297436
00:00:00.302	1.318681	1.260073	1.293773
00:00:00.302	1.329670	1.267399	1.300366
00:00:00.302	1.335531	1.263004	1.296703
00:00:00.303	1.339194	1.259341	1.293773
00:00:00.303	1.364835	1.311355	1.306960
00:00:00.304	1.350916	1.322344	1.298901
00:00:00.304	1.337729	1.314286	1.298901
00:00:00.304	1.323077	1.350916	1.301832
00:00:00.305	1.322344	1.420513	1.314286
00:00:00.305	1.300366	1.545055	1.322344
00:00:00.305	1.295238	1.663736	1.328205
00:00:00.306	1.305495	1.646886	1.334799
00:00:00.306	1.293040	1.553846	1.328938
00:00:00.306	1.299634	1.351648	1.317216
00:00:00.308	1.293040	1.120879	1.298901
00:00:00.308	1.304762	0.990476	1.281319
00:00:00.308	1.305495	0.910623	1.255678
00:00:00.308	1.305495	1.046154	1.236630
00:00:00.308	1.325275	1.297436	1.272527
00:00:00.309	1.344322	1.476923	1.299634
00:00:00.341	1.353846	1.536264	1.327473
00:00:00.341	1.349451	1.435165	1.323810
00:00:00.341	1.335531	1.269597	1.323810
00:00:00.342	1.328938	1.092308	1.320879
00:00:00.342	1.303297	0.996337	1.306960
00:00:00.343	1.284249	1.018315	1.304029
00:00:00.343	1.285714	1.024908	1.300366
00:00:00.343	1.271062	1.186813	1.310623
00:00:00.345	1.290110	1.320879	1.322344
00:00:00.345	1.297436	1.359707	1.327473
00:00:00.345	1.290842	1.360440	1.320147
00:00:00.345	1.299634	1.356044	1.319414
00:00:00.345	1.314286	1.392674	1.315751
00:00:00.345	1.301099	1.421245	1.298168
00:00:00.348	1.316484	1.457875	1.312088
00:00:00.348	1.339194	1.433700	1.317216
00:00:00.348	1.334799	1.426374	1.299634
00:00:00.348	1.332601	1.404396	1.312821
00:00:00.348	1.320879	1.405861	1.306960
00:00:00.348	1.318681	1.343590	1.297436
00:00:00.348	1.298901	1.344322	1.280586
00:00:00.348	1.292308	1.474725	1.265201
00:00:00.352	1.304762	1.490842	1.278388
00:00:00.352	1.291575	1.367033	1.276923
00:00:00.352	1.289377	1.187546	1.276923
00:00:00.352	1.295238	1.213187	1.293773
00:00:00.352	1.305495	1.363370	1.312088
00:00:00.352	1.289377	1.276923	1.305495
00:00:00.352	1.302564	1.295238	1.320147
00:00:00.352	1.309158	1.290110	1.317949
00:00:00.352	1.325275	1.213187	1.308425
00:00:00.352	1.339194	1.182418	1.293773
00:00:00.352	1.348718	1.146520	1.300366
00:00:00.354	1.348718	1.116484	1.323810
00:00:00.354	1.334799	1.191941	1.341392
00:00:00.354	1.328938	1.189011	1.328205
00:00:00.355	1.336996	1.329670	1.347253
00:00:00.355	1.340659	1.409524	1.346520
00:00:00.355	1.323077	1.389744	1.333333
00:00:00.355	1.304029	1.361905	1.314286
00:00:00.355	1.312088	1.305495	1.309158
00:00:00.355	1.287179	1.402198	1.273993
00:00:00.356	1.276923	1.449817	1.210256
00:00:00.356	1.276190	1.415385	1.224176
00:00:00.356	1.287179	1.512088	1.279853
00:00:00.357	1.265934	1.574359	1.321612
00:00:00.357	1.280586	1.467399	1.327473
00:00:00.358	1.297436	1.241758	1.356777
00:00:00.358	1.323077	0.984615	1.360440
00:00:00.358	1.334799	0.836630	1.367033
00:00:00.390	1.349451	0.975824	1.360440
00:00:00.392	1.364103	1.089377	1.342125
00:00:00.392	1.342125	1.170696	1.297436
00:00:00.392	1.321612	1.357509	1.276923
00:00:00.392	1.306960	1.417582	1.282051
00:00:00.392	1.301832	1.430037	1.287179
00:00:00.393	1.295971	1.548718	1.319414
00:00:00.393	1.312821	1.597070	1.309158
00:00:00.393	1.293773	1.564103	1.328205
00:00:00.394	1.301832	1.476923	1.306227
00:00:00.394	1.320147	1.351648	1.312821
00:00:00.394	1.309158	1.170696	1.292308
00:00:00.395	1.298168	1.087912	1.280586
00:00:00.395	1.302564	1.060806	1.298901
00:00:00.395	1.290110	1.156777	1.292308
00:00:00.396	1.323810	1.203663	1.286447
00:00:00.396	1.326007	1.190476	1.282784
00:00:00.397	1.325275	1.263004	1.275458
00:00:00.397	1.353114	1.347985	1.295238
00:00:00.397	1.341392	1.435165	1.300366
00:00:00.398	1.337729	1.450549	1.293773
00:00:00.398	1.328205	1.365568	1.293040
00:00:00.398	1.311355	1.330403	1.293773
00:00:00.399	1.300366	1.298168	1.298168
00:00:00.399	1.303297	1.282784	1.307692
00:00:00.399	1.298168	1.338462	1.309890
00:00:00.400	1.288645	1.400000	1.320879
00:00:00.400	1.297436	1.452015	1.319414
00:00:00.400	1.304029	1.431502	1.317216
00:00:00.401	1.298901	1.336264	1.313553
00:00:00.401	1.300366	1.252747	1.311355
00:00:00.402	1.301832	1.221245	1.310623
00:00:00.402	1.313553	1.220513	1.308425
00:00:00.402	1.307692	1.284982	1.312088
00:00:00.403	1.313553	1.325275	1.313553
00:00:00.403	1.308425	1.331868	1.315018
00:00:00.403	1.305495	1.249084	1.306960
00:00:00.404	1.309158	1.223443	1.322344
00:00:00.404	1.290842	1.261538	1.312821
00:00:00.404	1.304762	1.258608	1.272527
00:00:00.405	1.309890	1.342125	1.272527
00:00:00.405	1.301832	1.378022	1.283516
00:00:00.405	1.307692	1.386081	1.294505
00:00:00.406	1.311355	1.369231	1.306227
00:00:00.406	1.293040	1.348718	1.298901
00:00:00.407	1.304029	1.395604	1.298168
00:00:00.407	1.320147	1.405128	1.312821
00:00:00.407	1.317216	1.379487	1.321612
00:00:00.408	1.331868	1.356777	1.319414
00:00:00.408	1.333333	1.263004	1.313553
00:00:00.440	1.331136	1.201465	1.317216
00:00:00.442	1.365568	1.289377	1.347253
00:00:00.442	1.364835	1.384615	1.347253
00:00:00.442	1.316484	1.321612	1.327473
00:00:00.442	1.298168	1.224908	1.328938
00:00:00.442	1.280586	1.160440	1.313553
00:00:00.442	1.240293	1.145055	1.305495
00:00:00.443	1.235165	1.209524	1.288645
00:00:00.445	1.253480	1.221978	1.288645
00:00:00.445	1.274725	1.630769	1.304029
00:00:00.445	1.270330	1.821245	1.315018
00:00:00.445	1.271795	1.645421	1.317216
00:00:00.445	1.283516	1.369231	1.314286
00:00:00.445	1.323077	1.189011	1.306227
00:00:00.445	1.331136	1.014652	1.295971
00:00:00.445	1.327473	0.731868	1.282784
00:00:00.448	1.331868	0.775092	1.267399
00:00:00.448	1.343590	1.110623	1.289377
00:00:00.448	1.337729	1.233700	1.290110
00:00:00.448	1.367766	1.297436	1.303297
00:00:00.448	1.351648	1.354579	1.284982
00:00:00.448	1.317949	1.415385	1.306227
00:00:00.448	1.304762	1.480586	1.306227
00:00:00.448	1.297436	1.519414	1.336264
00:00:00.449	1.287179	1.464469	1.320147
00:00:00.449	1.298901	1.490110	1.320879
00:00:00.449	1.284982	1.484249	1.300366
00:00:00.450	1.279121	1.394139	1.282051
00:00:00.450	1.305495	1.292308	1.298168
00:00:00.451	1.294505	1.200000	1.276923
00:00:00.451	1.268132	1.134799	1.264469
00:00:00.451	1.293773	1.180220	1.259341
00:00:00.452	1.285714	1.224908	1.273993
00:00:00.452	1.307692	1.315018	1.300366
00:00:00.452	1.339194	1.332601	1.329670
00:00:00.453	1.345055	1.327473	1.342857
00:00:00.453	1.338462	1.367766	1.351648
00:00:00.453	1.328938	1.308425	1.348718
00:00:00.454	1.323810	1.331868	1.331136
00:00:00.454	1.317949	1.463004	1.331136
00:00:00.454	1.310623	1.559707	1.326007
00:00:00.455	1.290842	1.483516	1.298168
00:00:00.455	1.265934	1.315751	1.293040
00:00:00.456	1.276923	1.255678	1.299634
00:00:00.456	1.276190	1.189011	1.290842
00:00:00.456	1.303297	1.158974	1.295238
00:00:00.457	1.312821	1.183150	1.300366
00:00:00.457	1.326740	1.221978	1.297436
00:00:00.457	1.331868	1.286447	1.287179
00:00:00.458	1.359707	1.357509	1.298168
00:00:00.490	1.354579	1.391209	1.293040
00:00:00.490	1.360440	1.334066	1.293773
00:00:00.491	1.364103	1.224908	1.308425
00:00:00.491	1.362637	1.109158	1.298168
00:00:00.491	1.339194	1.104762	1.273260
00:00:00.492	1.336264	1.171429	1.265934
00:00:00.492	1.319414	1.312821	1.279121
00:00:00.492	1.308425	1.525275	1.304762
00:00:00.493	1.305495	1.555311	1.331868
00:00:00.493	1.276923	1.452747	1.345055
00:00:00.493	1.265201	1.328938	1.363370
00:00:00.494	1.269597	1.226374	1.361905
00:00:00.494	1.258608	1.186813	1.351648
00:00:00.495	1.257143	1.149451	1.341392
00:00:00.495	1.257143	1.328938	1.327473
00:00:00.496	1.284982	1.405861	1.312088
00:00:00.496	1.290842	1.356777	1.300366
00:00:00.496	1.294505	1.260806	1.305495
00:00:00.496	1.300366	1.268864	1.306227
00:00:00.497	1.315751	1.326740	1.295971
00:00:00.497	1.350183	1.487912	1.314286
00:00:00.497	1.361172	1.536996	1.327473
00:00:00.498	1.356044	1.460073	1.306960
00:00:00.498	1.339927	1.283516	1.300366
00:00:00.498	1.326007	1.149451	1.287179
00:00:00.499	1.323077	1.127473	1.283516
00:00:00.499	1.328205	1.104029	1.275458
00:00:00.500	1.339194	1.146520	1.253480
00:00:00.500	1.336264	1.342125	1.226374
00:00:00.500	1.305495	1.472527	1.226374
00:00:00.501	1.308425	1.471062	1.268864
00:00:00.501	1.303297	1.373626	1.309158
00:00:00.501	1.287912	1.254212	1.323077
00:00:00.502	1.293040	1.212454	1.347253
00:00:00.502	1.304762	1.257143	1.377289
00:00:00.502	1.318681	1.346520	1.383883
00:00:00.503	1.306227	1.337729	1.367766
00:00:00.503	1.281319	1.370696	1.348718
00:00:00.503	1.259341	1.340659	1.336996
00:00:00.508	1.262271	1.319414	1.316484
00:00:00.508	1.273993	1.262271	1.293040
00:00:00.508	1.293773	1.224176	1.289377
00:00:00.508	1.299634	1.344322	1.281319
00:00:00.508	1.318681	1.379487	1.289377
00:00:00.508	1.322344	1.375824	1.297436
00:00:00.508	1.320147	1.292308	1.293040
00:00:00.508	1.317216	1.210256	1.302564
00:00:00.508	1.328205	1.215385	1.297436
00:00:00.508	1.334066	1.311355	1.285714
00:00:00.508	1.337729	1.312821	1.282784
00:00:00.540	1.342125	1.311355	1.301832
00:00:00.543	1.358974	1.326740	1.289377
00:00:00.543	1.363370	1.338462	1.307692
00:00:00.543	1.346520	1.321612	1.312821
00:00:00.543	1.340659	1.323077	1.323810
00:00:00.543	1.330403	1.382418	1.323077
00:00:00.543	1.297436	1.398535	1.320879
00:00:00.543	1.267399	1.443956	1.340659
00:00:00.543	1.241758	1.433700	1.322344
00:00:00.543	1.241758	1.380220	1.309890
00:00:00.543	1.260806	1.282784	1.306960
00:00:00.544	1.265201	1.182418	1.291575
00:00:00.544	1.284249	1.110623	1.295971
00:00:00.544	1.298168	1.126007	1.271062
00:00:00.545	1.300366	1.170696	1.247619
00:00:00.545	1.314286	1.258608	1.267399
00:00:00.545	1.331868	1.339927	1.280586
00:00:00.546	1.329670	1.338462	1.299634
00:00:00.546	1.344322	1.282784	1.334066
00:00:00.546	1.355311	1.306960	1.343590
00:00:00.547	1.358974	1.362637	1.351648
00:00:00.547	1.356044	1.484249	1.349451
00:00:00.548	1.331136	1.487179	1.340659
00:00:00.548	1.327473	1.352381	1.323810
00:00:00.548	1.308425	1.224908	1.302564
00:00:00.549	1.300366	1.171429	1.303297
00:00:00.549	1.290842	1.130403	1.284982
00:00:00.549	1.280586	1.124542	1.276923
00:00:00.550	1.282784	1.295238	1.291575
00:00:00.550	1.298901	1.456410	1.299634
00:00:00.550	1.295238	1.450549	1.304762
00:00:00.551	1.310623	1.386081	1.304762
00:00:00.551	1.313553	1.268132	1.304762
00:00:00.551	1.314286	1.254212	1.304029
00:00:00.552	1.326740	1.257875	1.303297
00:00:00.552	1.315018	1.282784	1.293773
00:00:00.552	1.339927	1.337729	1.300366
00:00:00.553	1.344322	1.370696	1.304029
00:00:00.553	1.345788	1.394139	1.322344
00:00:00.554	1.338462	1.360440	1.315018
00:00:00.554	1.304029	1.315018	1.293773
00:00:00.554	1.304029	1.334066	1.304762
00:00:00.555	1.300366	1.339927	1.306960
00:00:00.555	1.281319	1.330403	1.300366
00:00:00.555	1.273260	1.315751	1.301832
00:00:00.556	1.252747	1.273993	1.291575
00:00:00.556	1.261538	1.254945	1.299634
00:00:00.556	1.263736	1.231502	1.298168
00:00:00.557	1.271062	1.230037	1.291575
00:00:00.557	1.312821	1.236630	1.287912
00:00:00.589	1.359707	1.270330	1.276190
00:00:00.590	1.359707	1.312088	1.273260
00:00:00.590	1.336264	1.373626	1.283516
00:00:00.590	1.345055	1.441026	1.298168
00:00:00.591	1.336996	1.399267	1.315018
00:00:00.591	1.337729	1.323810	1.334066
00:00:00.591	1.327473	1.288645	1.357509
00:00:00.592	1.330403	1.254945	1.372894
00:00:00.592	1.326740	1.232967	1.353846
00:00:00.593	1.295971	1.249817	1.338462
00:00:00.593	1.287912	1.304762	1.320879
00:00:00.593	1.282051	1.346520	1.310623
00:00:00.594	1.282784	1.375824	1.299634
00:00:00.594	1.276923	1.358974	1.290842
00:00:00.594	1.309158	1.311355	1.298901
00:00:00.595	1.320147	1.253480	1.295238
00:00:00.595	1.325275	1.260806	1.297436
00:00:00.595	1.329670	1.381685	1.288645
00:00:00.596	1.339194	1.411722	1.294505
00:00:00.596	1.312088	1.367766	1.289377
00:00:00.596	1.332601	1.290110	1.311355
00:00:00.597	1.328205	1.224176	1.303297
00:00:00.597	1.300366	1.203663	1.285714
00:00:00.598	1.288645	1.112821	1.279853
00:00:00.598	1.277656	1.238828	1.276923
00:00:00.598	1.270330	1.334066	1.273993
00:00:00.599	1.265934	1.325275	1.279121
00:00:00.599	1.274725	1.353846	1.293040
00:00:00.599	1.287179	1.384615	1.309158
00:00:00.600	1.325275	1.377289	1.254212
00:00:00.600	1.328205	1.331868	1.276190
00:00:00.600	1.351648	1.347985	1.306960
00:00:00.601	1.359707	1.294505	1.339194
00:00:00.601	1.362637	1.249817	1.348718
00:00:00.601	1.345055	1.210989	1.366300
00:00:00.603	1.324542	1.217582	1.365568
00:00:00.603	1.290842	1.343590	1.342857
00:00:00.604	1.306227	1.410989	1.355311
00:00:00.604	1.309158	1.369963	1.342857
00:00:00.604	1.308425	1.313553	1.332601
00:00:00.604	1.297436	1.268132	1.325275
00:00:00.604	1.282784	1.212454	1.295971
00:00:00.604	1.267399	1.258608	1.273993
00:00:00.607	1.269597	1.433700	1.279121
00:00:00.607	1.265934	1.438828	1.285714
00:00:00.607	1.304029	1.350916	1.291575
00:00:00.607	1.296703	1.283516	1.284249
00:00:00.607	1.309158	1.210256	1.276923
00:00:00.607	1.316484	1.203663	1.297436
00:00:00.607	1.323077	1.247619	1.304029
00:00:00.640	1.315751	1.311355	1.300366
00:00:00.640	1.329670	1.389744	1.307692
00:00:00.640	1.313553	1.359707	1.295238
00:00:00.640	1.309890	1.350916	1.293773
00:00:00.640	1.336264	1.350183	1.309158
00:00:00.641	1.326740	1.313553	1.302564
00:00:00.641	1.325275	1.281319	1.302564
00:00:00.641	1.323810	1.345055	1.305495
00:00:00.642	1.310623	1.357509	1.296703
00:00:00.642	1.315751	1.287912	1.312088
00:00:00.643	1.309890	1.235897	1.304029
00:00:00.643	1.295238	1.194872	1.295971
00:00:00.643	1.301832	1.268132	1.299634
00:00:00.644	1.304762	1.315018	1.311355
00:00:00.644	1.298168	1.256410	1.292308
00:00:00.644	1.317216	1.308425	1.317216
00:00:00.645	1.311355	1.315018	1.302564
00:00:00.645	1.301832	1.325275	1.303297
00:00:00.645	1.318681	1.306960	1.308425
00:00:00.646	1.322344	1.343590	1.305495
00:00:00.646	1.329670	1.353114	1.307692
00:00:00.647	1.326740	1.323810	1.292308
00:00:00.647	1.339927	1.288645	1.315018
00:00:00.647	1.327473	1.308425	1.310623
00:00:00.648	1.315018	1.284982	1.305495
00:00:00.648	1.290110	1.248352	1.295971
00:00:00.648	1.285714	1.237363	1.308425
00:00:00.649	1.279121	1.304029	1.302564
00:00:00.649	1.284982	1.420513	1.292308
00:00:00.649	1.289377	1.413919	1.304029
00:00:00.650	1.302564	1.358974	1.314286
00:00:00.650	1.311355	1.297436	1.305495
00:00:00.650	1.345788	1.240293	1.304029
00:00:00.651	1.347985	1.245421	1.305495
00:00:00.651	1.334799	1.263004	1.297436
00:00:00.652	1.334799	1.336996	1.308425
00:00:00.653	1.331868	1.330403	1.309158
00:00:00.653	1.325275	1.301832	1.296703
00:00:00.653	1.318681	1.290110	1.292308
00:00:00.653	1.312088	1.273993	1.298168
00:00:00.653	1.306227	1.286447	1.305495
00:00:00.654	1.303297	1.320879	1.323810
00:00:00.654	1.298168	1.361172	1.325275
00:00:00.654	1.287912	1.388278	1.328205
00:00:00.655	1.291575	1.392674	1.326007
00:00:00.655	1.291575	1.394872	1.309890
00:00:00.655	1.289377	1.432967	1.296703
00:00:00.656	1.284249	1.467399	1.309890
00:00:00.656	1.297436	1.415385	1.303297
00:00:00.657	1.300366	1.289377	1.306960
00:00:00.689	1.316484	1.142857	1.305495
00:00:00.689	1.315751	1.148718	1.318681
00:00:00.689	1.315018	1.058608	1.316484
00:00:00.690	1.321612	1.071062	1.325275
00:00:00.690	1.315751	1.145055	1.325275
00:00:00.691	1.306227	1.252015	1.309158
00:00:00.691	1.326007	1.290110	1.309158
00:00:00.691	1.310623	1.357509	1.308425
00:00:00.692	1.315751	1.416850	1.306960
00:00:00.692	1.300366	1.444689	1.304029
00:00:00.692	1.288645	1.424908	1.292308
00:00:00.693	1.304762	1.432234	1.306227
00:00:00.693	1.298168	1.386081	1.289377
00:00:00.693	1.287179	1.318681	1.299634
00:00:00.694	1.312088	1.216117	1.302564
00:00:00.694	1.312088	1.189744	1.293040
00:00:00.694	1.317949	1.221978	1.285714
00:00:00.695	1.339194	1.328205	1.306227
00:00:00.695	1.329670	1.492308	1.293040
00:00:00.698	1.341392	1.566300	1.323077
00:00:00.698	1.343590	1.462271	1.285714
00:00:00.698	1.333333	1.287912	1.213187
00:00:00.698	1.338462	1.117949	1.245421
00:00:00.698	1.323077	1.071062	1.280586
00:00:00.698	1.311355	1.080586	1.320879
00:00:00.698	1.285714	1.236630	1.340659
00:00:00.698	1.287912	1.375092	1.382418
00:00:00.698	1.283516	1.372894	1.389744
00:00:00.700	1.288645	1.350916	1.373626
00:00:00.700	1.272527	1.312088	1.332601
00:00:00.700	1.263736	1.345788	1.312088
00:00:00.700	1.265934	1.361172	1.300366
00:00:00.700	1.269597	1.314286	1.279121
00:00:00.703	1.297436	1.279121	1.282051
00:00:00.703	1.347253	1.273260	1.299634
00:00:00.703	1.350916	1.264469	1.298901
00:00:00.703	1.335531	1.273260	1.297436
00:00:00.703	1.330403	1.333333	1.307692
00:00:00.703	1.323077	1.337729	1.294505
00:00:00.703	1.316484	1.347253	1.306227
00:00:00.703	1.304029	1.350183	1.302564
00:00:00.703	1.317216	1.359707	1.291575
00:00:00.704	1.334066	1.342125	1.301832
00:00:00.705	1.321612	1.305495	1.296703
00:00:00.705	1.303297	1.320147	1.300366
00:00:00.705	1.298901	1.300366	1.307692
00:00:00.705	1.278388	1.340659	1.306227
00:00:00.706	1.294505	1.389744	1.308425
00:00:00.706	1.302564	1.337729	1.300366
00:00:00.706	1.317216	1.271795	1.303297
00:00:00.738	1.352381	1.311355	1.309158
00:00:00.739	1.353846	1.397070	1.302564
00:00:00.739	1.364835	1.380220	1.295238
00:00:00.740	1.374359	1.355311	1.279853
00:00:00.740	1.344322	1.263736	1.275458
00:00:00.740	1.323077	1.097436	1.284249
00:00:00.741	1.298901	1.072527	1.286447
00:00:00.741	1.294505	1.255678	1.298168
00:00:00.741	1.293773	1.391209	1.307692
00:00:00.742	1.286447	1.378022	1.347253
00:00:00.742	1.277656	1.339194	1.348718
00:00:00.742	1.262271	1.301099	1.356044
00:00:00.743	1.265201	1.321612	1.367766
00:00:00.743	1.250549	1.227106	1.312821
00:00:00.743	1.276190	1.243956	1.299634
00:00:00.744	1.293773	1.304762	1.290842
00:00:00.744	1.308425	1.287912	1.300366
00:00:00.745	1.328938	1.251282	1.300366
00:00:00.745	1.330403	1.287179	1.302564
00:00:00.745	1.335531	1.315018	1.288645
00:00:00.746	1.328938	1.328205	1.298168
