timestamp	ch1	ch2	ch3
00:00:00.000	1.315018	1.290842	1.301832
00:00:00.000	1.322344	1.296703	1.311355
00:00:00.001	1.316484	1.295238	1.306227
00:00:00.001	1.302564	1.287912	1.299634
00:00:00.001	1.298901	1.308425	1.304029
00:00:00.002	1.295971	1.318681	1.302564
00:00:00.002	1.299634	1.317216	1.306227
00:00:00.002	1.296703	1.316484	1.298901
00:00:00.003	1.301099	1.327473	1.304762
00:00:00.003	1.301832	1.327473	1.306960
00:00:00.004	1.314286	1.326007	1.307692
00:00:00.004	1.311355	1.331136	1.307692
00:00:00.004	1.317216	1.321612	1.304762
00:00:00.005	1.310623	1.294505	1.295971
00:00:00.005	1.316484	1.291575	1.313553
00:00:00.005	1.311355	1.282051	1.308425
00:00:00.006	1.306227	1.256410	1.306960
00:00:00.006	1.315751	1.282784	1.306960
00:00:00.006	1.309158	1.312821	1.295238
00:00:00.007	1.308425	1.315018	1.302564
00:00:00.007	1.310623	1.312821	1.306227
00:00:00.007	1.314286	1.314286	1.306227
00:00:00.008	1.302564	1.294505	1.304762
00:00:00.008	1.307692	1.287912	1.305495
00:00:00.009	1.293773	1.273260	1.294505
00:00:00.041	1.304762	1.297436	1.306960
00:00:00.041	1.307692	1.312088	1.310623
00:00:00.041	1.306960	1.323077	1.306227
00:00:00.042	1.312088	1.331868	1.306960
00:00:00.042	1.307692	1.326740	1.306960
00:00:00.043	1.301099	1.319414	1.308425
00:00:00.043	1.316484	1.279853	1.300366
00:00:00.043	1.323077	1.284982	1.309890
00:00:00.044	1.316484	1.282784	1.303297
00:00:00.044	1.312088	1.285714	1.306227
00:00:00.044	1.308425	1.298168	1.310623
00:00:00.045	1.313553	1.296703	1.309158
00:00:00.045	1.310623	1.300366	1.308425
00:00:00.045	1.304762	1.320879	1.303297
00:00:00.046	1.303297	1.352381	1.305495
00:00:00.046	1.304762	1.358242	1.306960
00:00:00.046	1.297436	1.334799	1.293773
00:00:00.047	1.305495	1.331868	1.306960
00:00:00.047	1.302564	1.318681	1.306227
00:00:00.048	1.313553	1.317216	1.312088
00:00:00.048	1.317949	1.314286	1.308425
00:00:00.048	1.308425	1.296703	1.300366
00:00:00.049	1.321612	1.298168	1.298901
00:00:00.049	1.321612	1.297436	1.313553
00:00:00.049	1.326740	1.297436	1.310623
00:00:00.050	1.326740	1.290842	1.307692
00:00:00.050	1.325275	1.297436	1.307692
00:00:00.050	1.318681	1.300366	1.303297
00:00:00.051	1.315018	1.312088	1.309158
00:00:00.052	1.314286	1.308425	1.304029
00:00:00.052	1.304029	1.312821	1.311355
00:00:00.052	1.310623	1.320879	1.306960
00:00:00.052	1.304029	1.309890	1.295971
00:00:00.053	1.304762	1.324542	1.306227
00:00:00.053	1.309158	1.318681	1.303297
00:00:00.053	1.301832	1.306227	1.298168
00:00:00.054	1.306227	1.296703	1.288645
00:00:00.054	1.313553	1.308425	1.312088
00:00:00.054	1.314286	1.297436	1.305495
00:00:00.055	1.308425	1.287912	1.294505
00:00:00.055	1.310623	1.287179	1.298168
00:00:00.055	1.320879	1.298168	1.309890
00:00:00.057	1.317949	1.301099	1.312088
00:00:00.057	1.314286	1.295238	1.307692
00:00:00.057	1.315751	1.301099	1.308425
00:00:00.057	1.310623	1.309158	1.295971
00:00:00.057	1.312088	1.327473	1.304029
00:00:00.059	1.302564	1.334799	1.311355
00:00:00.059	1.293040	1.321612	1.302564
00:00:00.059	1.311355	1.327473	1.305495
00:00:00.090	1.307692	1.320147	1.313553
00:00:00.092	1.301832	1.301099	1.303297
00:00:00.092	1.306227	1.284982	1.299634
00:00:00.092	1.314286	1.288645	1.305495
00:00:00.092	1.303297	1.273260	1.296703
00:00:00.092	1.323810	1.300366	1.308425
00:00:00.095	1.319414	1.277656	1.299634
00:00:00.095	1.328938	1.282051	1.309890
00:00:00.095	1.316484	1.291575	1.305495
00:00:00.095	1.319414	1.306227	1.308425
00:00:00.095	1.317216	1.309158	1.298168
00:00:00.095	1.303297	1.323810	1.298168
00:00:00.095	1.312088	1.328938	1.305495
00:00:00.095	1.301832	1.321612	1.308425
00:00:00.095	1.308425	1.322344	1.305495
00:00:00.096	1.297436	1.312821	1.300366
00:00:00.096	1.300366	1.298901	1.297436
00:00:00.097	1.293773	1.300366	1.300366
00:00:00.097	1.306227	1.300366	1.299634
00:00:00.097	1.313553	1.312088	1.307692
00:00:00.098	1.316484	1.315018	1.311355
00:00:00.098	1.315751	1.306227	1.314286
00:00:00.098	1.323810	1.312821	1.313553
00:00:00.099	1.316484	1.293773	1.304762
00:00:00.099	1.328938	1.309158	1.314286
00:00:00.099	1.323810	1.304762	1.302564
00:00:00.100	1.320147	1.304029	1.304029
00:00:00.100	1.318681	1.311355	1.306227
00:00:00.100	1.313553	1.306227	1.304762
00:00:00.101	1.305495	1.312821	1.302564
00:00:00.101	1.306960	1.319414	1.306227
00:00:00.102	1.304029	1.312088	1.302564
00:00:00.102	1.304762	1.312821	1.300366
00:00:00.102	1.306227	1.315751	1.304029
00:00:00.103	1.303297	1.320879	1.308425
00:00:00.103	1.309158	1.319414	1.307692
00:00:00.104	1.312821	1.311355	1.307692
00:00:00.104	1.310623	1.309890	1.304762
00:00:00.104	1.312088	1.308425	1.313553
00:00:00.104	1.315018	1.292308	1.306227
00:00:00.105	1.323077	1.298168	1.311355
00:00:00.105	1.307692	1.279853	1.300366
00:00:00.106	1.317216	1.276923	1.300366
00:00:00.106	1.312088	1.304762	1.309158
00:00:00.106	1.318681	1.317216	1.311355
00:00:00.107	1.303297	1.306960	1.297436
00:00:00.107	1.309158	1.312821	1.307692
00:00:00.107	1.306227	1.314286	1.306227
00:00:00.108	1.301832	1.323810	1.304029
00:00:00.108	1.306227	1.332601	1.309158
00:00:00.140	1.302564	1.318681	1.306960
00:00:00.141	1.300366	1.312088	1.306960
00:00:00.141	1.305495	1.305495	1.304029
00:00:00.141	1.303297	1.304762	1.297436
00:00:00.142	1.314286	1.321612	1.312088
00:00:00.142	1.312088	1.304762	1.306227
00:00:00.142	1.320147	1.304029	1.309890
00:00:00.143	1.317949	1.298901	1.309890
00:00:00.143	1.304029	1.284982	1.298168
00:00:00.143	1.327473	1.298168	1.310623
00:00:00.144	1.323077	1.279853	1.299634
00:00:00.144	1.316484	1.300366	1.308425
00:00:00.144	1.315018	1.324542	1.307692
00:00:00.145	1.296703	1.308425	1.298901
00:00:00.145	1.303297	1.308425	1.308425
00:00:00.146	1.307692	1.310623	1.308425
00:00:00.146	1.310623	1.323077	1.308425
00:00:00.146	1.309158	1.317216	1.306227
00:00:00.147	1.285714	1.298901	1.295238
00:00:00.147	1.301832	1.304029	1.293773
00:00:00.147	1.306960	1.304762	1.293040
00:00:00.148	1.309158	1.306960	1.306227
00:00:00.148	1.317949	1.300366	1.309158
00:00:00.148	1.316484	1.291575	1.302564
00:00:00.149	1.321612	1.295238	1.308425
00:00:00.149	1.316484	1.301832	1.305495
00:00:00.150	1.305495	1.302564	1.299634
00:00:00.150	1.304762	1.295971	1.304762
00:00:00.150	1.313553	1.295238	1.296703
00:00:00.152	1.316484	1.305495	1.307692
00:00:00.152	1.306227	1.306227	1.304762
00:00:00.152	1.300366	1.300366	1.295238
00:00:00.152	1.306227	1.309890	1.312088
00:00:00.152	1.303297	1.310623	1.303297
00:00:00.152	1.300366	1.317949	1.290842
00:00:00.153	1.304762	1.315018	1.298168
00:00:00.153	1.306960	1.309158	1.312821
00:00:00.153	1.310623	1.310623	1.309158
00:00:00.155	1.312088	1.298901	1.305495
00:00:00.155	1.317949	1.299634	1.302564
00:00:00.155	1.312088	1.297436	1.292308
00:00:00.155	1.318681	1.304029	1.300366
00:00:00.155	1.320879	1.306227	1.306227
00:00:00.158	1.320147	1.309890	1.300366
00:00:00.158	1.314286	1.323810	1.305495
00:00:00.158	1.310623	1.331868	1.306960
00:00:00.158	1.310623	1.332601	1.309158
00:00:00.158	1.308425	1.329670	1.297436
00:00:00.158	1.307692	1.323810	1.306960
00:00:00.158	1.293040	1.304029	1.301832
00:00:00.191	1.296703	1.290110	1.295238
00:00:00.191	1.301832	1.274725	1.300366
00:00:00.191	1.301832	1.254212	1.306960
00:00:00.191	1.312088	1.263736	1.305495
00:00:00.191	1.315751	1.277656	1.309890
00:00:00.192	1.302564	1.276190	1.306227
00:00:00.192	1.323810	1.305495	1.312088
00:00:00.192	1.317949	1.304029	1.300366
00:00:00.193	1.317216	1.309890	1.306960
00:00:00.193	1.326740	1.312088	1.309158
00:00:00.194	1.311355	1.306960	1.307692
00:00:00.194	1.317949	1.315018	1.306960
00:00:00.194	1.309158	1.306960	1.290842
00:00:00.195	1.304762	1.315751	1.306227
00:00:00.195	1.307692	1.322344	1.309158
00:00:00.195	1.287179	1.306227	1.300366
00:00:00.196	1.306960	1.318681	1.309158
00:00:00.196	1.308425	1.333333	1.300366
00:00:00.196	1.309158	1.330403	1.305495
00:00:00.197	1.304762	1.312821	1.306227
00:00:00.197	1.313553	1.302564	1.306960
00:00:00.197	1.314286	1.304029	1.306960
00:00:00.198	1.317949	1.307692	1.305495
00:00:00.198	1.323810	1.301099	1.305495
00:00:00.199	1.323810	1.292308	1.306227
00:00:00.199	1.307692	1.287912	1.300366
00:00:00.199	1.317216	1.297436	1.298901
00:00:00.200	1.304029	1.290842	1.295971
00:00:00.200	1.305495	1.294505	1.302564
00:00:00.200	1.295971	1.293773	1.300366
00:00:00.201	1.315018	1.322344	1.310623
00:00:00.201	1.303297	1.317949	1.300366
00:00:00.201	1.304029	1.327473	1.303297
00:00:00.202	1.297436	1.323077	1.293773
00:00:00.202	1.301099	1.331868	1.306960
00:00:00.202	1.306960	1.325275	1.307692
00:00:00.203	1.291575	1.309890	1.298901
00:00:00.203	1.309158	1.307692	1.305495
00:00:00.204	1.315018	1.290110	1.298901
00:00:00.204	1.314286	1.289377	1.308425
00:00:00.204	1.321612	1.294505	1.305495
00:00:00.205	1.317949	1.302564	1.312821
00:00:00.205	1.321612	1.291575	1.304762
00:00:00.205	1.321612	1.293773	1.305495
00:00:00.206	1.315018	1.290842	1.300366
00:00:00.206	1.314286	1.289377	1.309890
00:00:00.206	1.316484	1.312088	1.306960
00:00:00.207	1.302564	1.317216	1.297436
00:00:00.207	1.293040	1.326007	1.299634
00:00:00.207	1.305495	1.343590	1.306227
00:00:00.241	1.304762	1.342857	1.301832
00:00:00.241	1.306960	1.339194	1.303297
00:00:00.241	1.292308	1.321612	1.298168
00:00:00.241	1.315018	1.296703	1.299634
00:00:00.241	1.321612	1.299634	1.309890
00:00:00.241	1.314286	1.293773	1.309158
00:00:00.242	1.313553	1.284249	1.309890
00:00:00.242	1.320147	1.282784	1.305495
00:00:00.243	1.320879	1.282051	1.308425
00:00:00.243	1.320879	1.269597	1.296703
00:00:00.243	1.311355	1.284982	1.312088
00:00:00.244	1.305495	1.289377	1.301832
00:00:00.244	1.317216	1.303297	1.315751
00:00:00.244	1.317216	1.314286	1.309158
00:00:00.245	1.301832	1.316484	1.296703
00:00:00.245	1.305495	1.334799	1.305495
00:00:00.245	1.303297	1.342857	1.309158
00:00:00.246	1.299634	1.323077	1.306960
00:00:00.246	1.304762	1.318681	1.306227
00:00:00.246	1.308425	1.297436	1.300366
00:00:00.247	1.310623	1.298901	1.311355
00:00:00.247	1.301099	1.293040	1.309890
00:00:00.248	1.306227	1.287912	1.309158
00:00:00.248	1.309158	1.307692	1.308425
00:00:00.248	1.315018	1.295238	1.306227
00:00:00.251	1.312821	1.284249	1.300366
00:00:00.251	1.323077	1.299634	1.305495
00:00:00.251	1.333333	1.307692	1.304029
00:00:00.251	1.336996	1.306227	1.306960
00:00:00.251	1.323810	1.313553	1.306227
00:00:00.251	1.290842	1.310623	1.297436
00:00:00.251	1.282784	1.310623	1.295971
00:00:00.251	1.293040	1.312821	1.296703
00:00:00.251	1.302564	1.332601	1.311355
00:00:00.255	1.298168	1.317949	1.300366
00:00:00.255	1.298168	1.317949	1.306227
00:00:00.255	1.303297	1.306227	1.309158
00:00:00.255	1.295971	1.310623	1.305495
00:00:00.255	1.314286	1.318681	1.308425
00:00:00.255	1.317216	1.304029	1.300366
00:00:00.255	1.318681	1.290110	1.300366
00:00:00.255	1.317216	1.284249	1.306960
00:00:00.255	1.306960	1.278388	1.298901
00:00:00.255	1.309158	1.287912	1.299634
00:00:00.255	1.315751	1.295971	1.290110
00:00:00.256	1.319414	1.320879	1.305495
00:00:00.256	1.312088	1.296703	1.295971
00:00:00.256	1.304029	1.303297	1.304762
00:00:00.257	1.306960	1.311355	1.306960
00:00:00.257	1.295238	1.300366	1.299634
00:00:00.289	1.295971	1.305495	1.301832
00:00:00.290	1.304029	1.319414	1.302564
00:00:00.290	1.307692	1.323077	1.311355
00:00:00.290	1.309890	1.321612	1.312821
00:00:00.291	1.302564	1.309158	1.304029
00:00:00.291	1.302564	1.300366	1.298168
00:00:00.292	1.320147	1.309158	1.310623
00:00:00.293	1.315018	1.287912	1.298901
00:00:00.293	1.323810	1.299634	1.311355
00:00:00.293	1.317949	1.297436	1.306227
00:00:00.293	1.310623	1.295971	1.295971
00:00:00.293	1.306960	1.304029	1.304029
00:00:00.294	1.320879	1.314286	1.309890
00:00:00.294	1.305495	1.308425	1.306960
00:00:00.294	1.308425	1.320147	1.306960
00:00:00.295	1.301832	1.320879	1.304029
00:00:00.295	1.301832	1.338462	1.306227
00:00:00.295	1.301099	1.349451	1.300366
00:00:00.296	1.305495	1.344322	1.306960
00:00:00.296	1.306227	1.313553	1.309890
00:00:00.297	1.309158	1.291575	1.303297
00:00:00.297	1.308425	1.265934	1.306227
00:00:00.297	1.317949	1.265934	1.307692
00:00:00.298	1.317949	1.259341	1.305495
00:00:00.298	1.318681	1.276190	1.304762
00:00:00.298	1.317949	1.295971	1.309158
00:00:00.299	1.314286	1.294505	1.295238
00:00:00.299	1.317949	1.303297	1.304762
00:00:00.299	1.311355	1.302564	1.309158
00:00:00.300	1.313553	1.302564	1.303297
00:00:00.300	1.309890	1.304762	1.311355
00:00:00.300	1.310623	1.312088	1.309158
00:00:00.301	1.303297	1.318681	1.302564
00:00:00.301	1.308425	1.336996	1.312088
00:00:00.302	1.302564	1.335531	1.303297
00:00:00.302	1.306227	1.332601	1.309158
00:00:00.302	1.306227	1.320147	1.300366
00:00:00.303	1.309158	1.319414	1.302564
00:00:00.303	1.312088	1.315018	1.309890
00:00:00.303	1.314286	1.297436	1.299634
00:00:00.304	1.319414	1.306227	1.309158
00:00:00.304	1.316484	1.311355	1.309890
00:00:00.304	1.320879	1.321612	1.310623
00:00:00.305	1.323077	1.328938	1.309158
00:00:00.305	1.323810	1.325275	1.309890
00:00:00.306	1.316484	1.305495	1.313553
00:00:00.306	1.316484	1.298168	1.300366
00:00:00.306	1.311355	1.293773	1.304029
00:00:00.307	1.309158	1.279853	1.293040
00:00:00.307	1.303297	1.267399	1.303297
00:00:00.339	1.305495	1.277656	1.299634
00:00:00.339	1.296703	1.291575	1.292308
00:00:00.340	1.295238	1.304029	1.299634
00:00:00.340	1.302564	1.313553	1.301832
00:00:00.341	1.308425	1.326007	1.304029
00:00:00.341	1.310623	1.304762	1.304762
00:00:00.341	1.312088	1.293040	1.309158
00:00:00.342	1.316484	1.301832	1.306960
00:00:00.342	1.314286	1.297436	1.301832
00:00:00.342	1.317216	1.307692	1.306227
00:00:00.343	1.315018	1.310623	1.306960
00:00:00.343	1.312088	1.297436	1.295971
00:00:00.343	1.312088	1.315018	1.308425
00:00:00.345	1.310623	1.318681	1.309158
00:00:00.345	1.312088	1.321612	1.309158
00:00:00.346	1.314286	1.316484	1.304762
00:00:00.346	1.298168	1.310623	1.300366
00:00:00.346	1.309158	1.328205	1.313553
00:00:00.348	1.306227	1.312088	1.303297
00:00:00.348	1.302564	1.310623	1.307692
00:00:00.348	1.309890	1.313553	1.301832
00:00:00.348	1.298168	1.302564	1.296703
00:00:00.348	1.315018	1.304029	1.306960
00:00:00.348	1.313553	1.305495	1.308425
00:00:00.348	1.312088	1.298901	1.300366
00:00:00.348	1.323810	1.304762	1.310623
00:00:00.348	1.316484	1.295971	1.301832
00:00:00.352	1.313553	1.297436	1.309158
00:00:00.352	1.313553	1.293773	1.306960
00:00:00.352	1.298168	1.285714	1.292308
00:00:00.352	1.305495	1.290842	1.310623
00:00:00.352	1.304762	1.283516	1.298168
00:00:00.352	1.306227	1.312821	1.301832
00:00:00.352	1.309890	1.326740	1.307692
00:00:00.352	1.308425	1.322344	1.291575
00:00:00.352	1.320147	1.324542	1.304762
00:00:00.352	1.315751	1.312088	1.307692
00:00:00.352	1.312088	1.312821	1.309158
00:00:00.353	1.320147	1.308425	1.312821
00:00:00.353	1.313553	1.324542	1.304029
00:00:00.353	1.304029	1.328938	1.302564
00:00:00.354	1.319414	1.328205	1.307692
00:00:00.354	1.318681	1.323810	1.310623
00:00:00.355	1.320879	1.310623	1.306960
00:00:00.355	1.315018	1.287912	1.302564
00:00:00.355	1.313553	1.284249	1.305495
00:00:00.356	1.310623	1.299634	1.303297
00:00:00.356	1.303297	1.281319	1.293773
00:00:00.356	1.301099	1.302564	1.304762
00:00:00.357	1.303297	1.290842	1.304762
00:00:00.389	1.300366	1.287912	1.306960
00:00:00.389	1.300366	1.303297	1.307692
00:00:00.390	1.295971	1.298901	1.300366
00:00:00.390	1.308425	1.298901	1.312088
00:00:00.390	1.307692	1.287179	1.304762
00:00:00.391	1.314286	1.306960	1.304029
00:00:00.391	1.325275	1.348718	1.312088
00:00:00.391	1.328205	1.344322	1.312088
00:00:00.392	1.326007	1.323810	1.312821
00:00:00.392	1.339194	1.302564	1.318681
00:00:00.392	1.315751	1.304029	1.315751
00:00:00.393	1.319414	1.334799	1.312821
00:00:00.393	1.314286	1.335531	1.312088
00:00:00.394	1.309890	1.325275	1.309158
00:00:00.394	1.317949	1.364103	1.309890
00:00:00.394	1.307692	1.405128	1.303297
00:00:00.395	1.312088	1.377289	1.304029
00:00:00.395	1.318681	1.287912	1.300366
00:00:00.395	1.321612	1.334066	1.308425
00:00:00.396	1.316484	1.407326	1.303297
00:00:00.396	1.303297	1.379487	1.293040
00:00:00.397	1.306960	1.396337	1.299634
00:00:00.397	1.305495	1.307692	1.279853
00:00:00.397	1.310623	1.189744	1.298168
00:00:00.397	1.309158	1.118681	1.314286
00:00:00.398	1.296703	1.029304	1.306960
00:00:00.398	1.266667	1.006593	1.283516
00:00:00.399	1.279853	1.167033	1.302564
00:00:00.399	1.279853	1.245421	1.304762
00:00:00.399	1.293040	1.393407	1.318681
00:00:00.400	1.291575	1.570696	1.323810
00:00:00.400	1.280586	1.549451	1.327473
00:00:00.400	1.283516	1.416850	1.301832
00:00:00.401	1.305495	1.286447	1.317216
00:00:00.401	1.315018	1.175092	1.310623
00:00:00.401	1.319414	1.134066	1.302564
00:00:00.402	1.330403	1.043223	1.298901
00:00:00.402	1.339927	1.094505	1.293773
00:00:00.402	1.345788	1.298168	1.293040
00:00:00.403	1.346520	1.385348	1.318681
00:00:00.403	1.336264	1.424908	1.323077
00:00:00.404	1.315751	1.413919	1.318681
00:00:00.404	1.311355	1.395604	1.320879
00:00:00.404	1.317216	1.414652	1.315751
00:00:00.405	1.309890	1.362637	1.313553
00:00:00.405	1.303297	1.470330	1.302564
00:00:00.405	1.293773	1.556777	1.331136
00:00:00.406	1.301099	1.473993	1.318681
00:00:00.406	1.311355	1.344322	1.314286
00:00:00.406	1.334066	1.209524	1.304762
00:00:00.441	1.312088	1.104029	1.295971
00:00:00.441	1.313553	1.068864	1.282051
00:00:00.441	1.295971	1.006593	1.274725
00:00:00.441	1.297436	1.168498	1.294505
00:00:00.441	1.311355	1.333333	1.300366
00:00:00.441	1.315751	1.380952	1.311355
00:00:00.441	1.313553	1.363370	1.311355
00:00:00.443	1.318681	1.362637	1.314286
00:00:00.443	1.327473	1.380220	1.313553
00:00:00.443	1.331136	1.389011	1.309890
00:00:00.443	1.329670	1.373626	1.306960
00:00:00.443	1.317949	1.351648	1.295238
00:00:00.443	1.342857	1.351648	1.312821
00:00:00.443	1.331868	1.353114	1.311355
00:00:00.447	1.321612	1.334799	1.306227
00:00:00.447	1.307692	1.367033	1.315018
00:00:00.447	1.300366	1.358974	1.308425
00:00:00.447	1.306227	1.376557	1.310623
00:00:00.447	1.304029	1.335531	1.309158
00:00:00.447	1.295238	1.272527	1.306227
00:00:00.447	1.303297	1.238828	1.309890
00:00:00.447	1.319414	1.243223	1.313553
00:00:00.447	1.309158	1.232234	1.304762
00:00:00.447	1.279853	1.233700	1.290842
00:00:00.447	1.281319	1.284249	1.300366
00:00:00.448	1.281319	1.383883	1.303297
00:00:00.448	1.287912	1.416850	1.309158
00:00:00.448	1.308425	1.382418	1.312821
00:00:00.449	1.327473	1.310623	1.306227
00:00:00.449	1.338462	1.263736	1.312821
00:00:00.449	1.328205	1.251282	1.310623
00:00:00.450	1.312821	1.246154	1.299634
00:00:00.450	1.309890	1.306227	1.305495
00:00:00.450	1.312088	1.388278	1.295971
00:00:00.451	1.312821	1.405861	1.312821
00:00:00.451	1.311355	1.374359	1.305495
00:00:00.451	1.304762	1.315751	1.305495
00:00:00.452	1.315751	1.241026	1.307692
00:00:00.452	1.304762	1.219048	1.292308
00:00:00.453	1.305495	1.280586	1.292308
00:00:00.453	1.317949	1.319414	1.305495
00:00:00.453	1.313553	1.268864	1.311355
00:00:00.454	1.317216	1.235897	1.304762
00:00:00.454	1.315018	1.221978	1.292308
00:00:00.454	1.313553	1.210256	1.292308
00:00:00.455	1.308425	1.252015	1.297436
00:00:00.455	1.297436	1.295238	1.299634
00:00:00.455	1.304762	1.326007	1.307692
00:00:00.456	1.287912	1.332601	1.300366
00:00:00.456	1.304762	1.369231	1.307692
00:00:00.488	1.309158	1.363370	1.311355
00:00:00.489	1.308425	1.363370	1.305495
00:00:00.489	1.309890	1.340659	1.307692
00:00:00.489	1.316484	1.345788	1.304762
00:00:00.490	1.312821	1.358974	1.309158
00:00:00.490	1.309890	1.334066	1.300366
00:00:00.490	1.314286	1.361905	1.305495
00:00:00.491	1.323810	1.356777	1.306227
00:00:00.491	1.323077	1.283516	1.311355
00:00:00.492	1.322344	1.230769	1.304029
00:00:00.492	1.309158	1.226374	1.300366
00:00:00.492	1.325275	1.224176	1.303297
00:00:00.493	1.318681	1.220513	1.301832
00:00:00.493	1.315751	1.322344	1.302564
00:00:00.493	1.315018	1.470330	1.304762
00:00:00.494	1.310623	1.489377	1.315018
00:00:00.494	1.304762	1.385348	1.305495
00:00:00.494	1.303297	1.304762	1.314286
00:00:00.495	1.305495	1.238095	1.308425
00:00:00.495	1.299634	1.227106	1.303297
00:00:00.495	1.314286	1.257875	1.311355
00:00:00.496	1.297436	1.246154	1.294505
00:00:00.496	1.315751	1.328938	1.309890
00:00:00.497	1.326740	1.301832	1.312088
00:00:00.497	1.321612	1.243223	1.313553
00:00:00.497	1.328938	1.222711	1.306960
00:00:00.498	1.321612	1.226374	1.293773
00:00:00.498	1.312088	1.343590	1.285714
00:00:00.498	1.318681	1.405861	1.297436
00:00:00.499	1.314286	1.440293	1.306227
00:00:00.499	1.304029	1.406593	1.306227
00:00:00.499	1.309158	1.359707	1.304762
00:00:00.500	1.306960	1.285714	1.310623
00:00:00.500	1.295971	1.229304	1.296703
00:00:00.500	1.290842	1.204396	1.302564
00:00:00.502	1.295238	1.194872	1.303297
00:00:00.502	1.296703	1.164103	1.293773
00:00:00.502	1.287179	1.268864	1.300366
00:00:00.502	1.310623	1.351648	1.309890
00:00:00.502	1.311355	1.418315	1.312821
00:00:00.504	1.315018	1.404396	1.312821
00:00:00.504	1.322344	1.326740	1.310623
00:00:00.504	1.304029	1.265934	1.309158
00:00:00.507	1.322344	1.211722	1.306960
00:00:00.507	1.314286	1.259341	1.290842
00:00:00.507	1.320879	1.367033	1.304029
00:00:00.507	1.326740	1.372894	1.313553
00:00:00.507	1.309158	1.321612	1.303297
00:00:00.507	1.316484	1.285714	1.306227
00:00:00.507	1.308425	1.230037	1.303297
00:00:00.540	1.313553	1.276923	1.310623
00:00:00.540	1.306227	1.304762	1.300366
00:00:00.540	1.294505	1.317949	1.295238
00:00:00.540	1.312088	1.351648	1.308425
00:00:00.540	1.306960	1.332601	1.304762
00:00:00.540	1.308425	1.329670	1.309890
00:00:00.540	1.320879	1.338462	1.310623
00:00:00.544	1.312088	1.326740	1.306227
00:00:00.544	1.323077	1.331136	1.311355
00:00:00.544	1.322344	1.320147	1.298168
00:00:00.544	1.321612	1.312821	1.306227
00:00:00.544	1.314286	1.309158	1.306960
00:00:00.544	1.306227	1.311355	1.305495
00:00:00.544	1.309890	1.306960	1.306960
00:00:00.544	1.290110	1.287179	1.300366
00:00:00.544	1.306960	1.314286	1.302564
00:00:00.544	1.297436	1.317216	1.287179
00:00:00.544	1.300366	1.344322	1.307692
00:00:00.544	1.311355	1.347253	1.296703
00:00:00.545	1.312088	1.364103	1.309158
00:00:00.546	1.312088	1.362637	1.309158
00:00:00.546	1.306960	1.328938	1.304029
00:00:00.546	1.295238	1.273993	1.296703
00:00:00.546	1.294505	1.260806	1.300366
00:00:00.547	1.295238	1.238095	1.301832
00:00:00.547	1.304762	1.256410	1.307692
00:00:00.547	1.320879	1.270330	1.309890
00:00:00.548	1.306227	1.293040	1.309158
00:00:00.548	1.328938	1.295971	1.312821
00:00:00.548	1.320147	1.311355	1.298901
00:00:00.549	1.309158	1.257875	1.305495
00:00:00.549	1.318681	1.298168	1.301832
00:00:00.550	1.312821	1.309158	1.306227
00:00:00.550	1.295238	1.312821	1.298168
00:00:00.550	1.290842	1.295238	1.293773
00:00:00.551	1.295971	1.265201	1.295971
00:00:00.551	1.300366	1.302564	1.296703
00:00:00.551	1.305495	1.336996	1.302564
00:00:00.552	1.331868	1.358974	1.306227
00:00:00.552	1.345788	1.343590	1.312088
00:00:00.552	1.341392	1.308425	1.309890
00:00:00.554	1.342125	1.315751	1.307692
00:00:00.554	1.331868	1.315018	1.304762
00:00:00.554	1.323810	1.308425	1.306227
00:00:00.554	1.311355	1.271795	1.306227
00:00:00.554	1.312088	1.256410	1.304029
00:00:00.555	1.310623	1.224176	1.300366
00:00:00.555	1.304762	1.268132	1.304029
00:00:00.555	1.296703	1.321612	1.312088
00:00:00.556	1.293040	1.386813	1.307692
00:00:00.588	1.284982	1.413187	1.306227
00:00:00.588	1.299634	1.394139	1.312088
00:00:00.588	1.301832	1.360440	1.311355
00:00:00.589	1.309158	1.315018	1.301832
00:00:00.589	1.318681	1.262271	1.312088
00:00:00.590	1.309158	1.215385	1.304762
00:00:00.590	1.307692	1.226374	1.306227
00:00:00.590	1.304029	1.306227	1.312088
00:00:00.591	1.304029	1.309158	1.308425
00:00:00.591	1.310623	1.300366	1.300366
00:00:00.591	1.325275	1.310623	1.306960
00:00:00.592	1.323810	1.305495	1.295238
00:00:00.592	1.334799	1.330403	1.308425
00:00:00.592	1.323810	1.320147	1.312821
00:00:00.593	1.312821	1.313553	1.311355
00:00:00.593	1.309158	1.320879	1.312821
00:00:00.593	1.295238	1.317216	1.300366
00:00:00.594	1.288645	1.326007	1.304762
00:00:00.594	1.280586	1.322344	1.293040
00:00:00.595	1.304029	1.337729	1.309890
00:00:00.595	1.305495	1.340659	1.316484
00:00:00.595	1.319414	1.326740	1.308425
00:00:00.597	1.307692	1.304762	1.283516
00:00:00.597	1.319414	1.305495	1.295971
00:00:00.597	1.315018	1.289377	1.304029
00:00:00.597	1.323810	1.301832	1.315018
00:00:00.597	1.335531	1.302564	1.317949
00:00:00.597	1.323077	1.301099	1.320147
00:00:00.598	1.320147	1.295238	1.315751
00:00:00.598	1.323810	1.305495	1.323810
00:00:00.599	1.315751	1.315751	1.319414
00:00:00.599	1.307692	1.322344	1.315751
00:00:00.599	1.303297	1.295971	1.297436
00:00:00.601	1.312088	1.304029	1.303297
00:00:00.601	1.309158	1.318681	1.306227
00:00:00.601	1.300366	1.320879	1.293773
00:00:00.601	1.311355	1.345055	1.298901
00:00:00.602	1.312088	1.341392	1.306960
00:00:00.602	1.310623	1.314286	1.304762
00:00:00.604	1.315751	1.334799	1.312821
00:00:00.604	1.307692	1.355311	1.300366
00:00:00.604	1.328205	1.309890	1.308425
00:00:00.604	1.323810	1.224908	1.310623
00:00:00.604	1.313553	1.238095	1.303297
00:00:00.604	1.290842	1.313553	1.291575
00:00:00.604	1.310623	1.352381	1.304762
00:00:00.604	1.301832	1.339927	1.304762
00:00:00.608	1.293773	1.282784	1.303297
00:00:00.608	1.299634	1.254212	1.296703
00:00:00.608	1.306960	1.167033	1.290110
00:00:00.639	1.315018	1.152381	1.298168
00:00:00.639	1.301832	1.191941	1.296703
00:00:00.639	1.305495	1.284249	1.285714
00:00:00.639	1.304762	1.372894	1.310623
00:00:00.639	1.309158	1.352381	1.304029
00:00:00.639	1.295971	1.331136	1.294505
00:00:00.640	1.305495	1.318681	1.306960
00:00:00.640	1.315751	1.282784	1.309158
00:00:00.640	1.320879	1.295971	1.310623
00:00:00.641	1.332601	1.328205	1.313553
00:00:00.641	1.331136	1.346520	1.300366
00:00:00.641	1.342857	1.398535	1.312821
00:00:00.642	1.326007	1.432234	1.301832
00:00:00.642	1.318681	1.419048	1.314286
00:00:00.642	1.315751	1.367766	1.313553
00:00:00.643	1.307692	1.306960	1.316484
00:00:00.643	1.303297	1.261538	1.302564
00:00:00.644	1.293773	1.259341	1.298901
00:00:00.644	1.290842	1.287912	1.291575
00:00:00.644	1.282051	1.375092	1.302564
00:00:00.645	1.290842	1.386081	1.303297
00:00:00.645	1.306227	1.326740	1.305495
00:00:00.645	1.320147	1.227106	1.304762
00:00:00.646	1.309890	1.118681	1.291575
00:00:00.646	1.317949	1.109158	1.291575
00:00:00.646	1.318681	1.249084	1.290110
00:00:00.647	1.324542	1.298168	1.304762
00:00:00.647	1.336264	1.316484	1.306960
00:00:00.648	1.324542	1.297436	1.306960
00:00:00.648	1.319414	1.321612	1.313553
00:00:00.648	1.296703	1.327473	1.305495
00:00:00.649	1.298901	1.336264	1.300366
00:00:00.649	1.295238	1.344322	1.306960
00:00:00.649	1.306960	1.342857	1.306960
00:00:00.650	1.304762	1.351648	1.314286
00:00:00.650	1.305495	1.345055	1.307692
00:00:00.650	1.304029	1.339194	1.309158
00:00:00.651	1.315018	1.342125	1.309890
00:00:00.651	1.315018	1.330403	1.304762
00:00:00.651	1.312088	1.320879	1.304029
00:00:00.652	1.315018	1.316484	1.309890
00:00:00.652	1.323077	1.323810	1.308425
00:00:00.653	1.329670	1.303297	1.300366
00:00:00.653	1.323077	1.290842	1.295238
00:00:00.653	1.347985	1.327473	1.305495
00:00:00.654	1.322344	1.310623	1.309890
00:00:00.654	1.311355	1.315751	1.317216
00:00:00.654	1.312821	1.334799	1.312088
00:00:00.655	1.317216	1.337729	1.316484
00:00:00.655	1.314286	1.352381	1.300366
00:00:00.687	1.314286	1.309890	1.304762
00:00:00.688	1.306960	1.268864	1.309158
00:00:00.688	1.302564	1.216850	1.297436
00:00:00.688	1.299634	1.180220	1.298168
00:00:00.689	1.287179	1.208791	1.301832
00:00:00.690	1.270330	1.293773	1.300366
00:00:00.690	1.269597	1.336996	1.295238
00:00:00.690	1.279853	1.350916	1.313553
00:00:00.690	1.306227	1.372894	1.309158
00:00:00.690	1.314286	1.367033	1.309158
00:00:00.691	1.329670	1.336996	1.312088
00:00:00.691	1.340659	1.298168	1.308425
00:00:00.692	1.337729	1.300366	1.310623
00:00:00.692	1.332601	1.350916	1.300366
00:00:00.692	1.304029	1.364103	1.295971
00:00:00.693	1.287912	1.301832	1.311355
00:00:00.693	1.272527	1.300366	1.304762
00:00:00.693	1.270330	1.260806	1.306227
00:00:00.694	1.282051	1.197070	1.293773
00:00:00.694	1.300366	1.172894	1.289377
00:00:00.694	1.305495	1.232967	1.294505
00:00:00.695	1.325275	1.305495	1.310623
00:00:00.695	1.317216	1.325275	1.298901
00:00:00.695	1.309890	1.329670	1.294505
00:00:00.696	1.317216	1.334799	1.308425
00:00:00.696	1.314286	1.324542	1.312088
00:00:00.697	1.315751	1.331136	1.306960
00:00:00.697	1.316484	1.313553	1.295971
00:00:00.697	1.334066	1.326007	1.314286
00:00:00.699	1.321612	1.320147	1.308425
00:00:00.699	1.315751	1.312088	1.304029
00:00:00.699	1.314286	1.316484	1.301832
00:00:00.699	1.305495	1.356044	1.292308
00:00:00.699	1.309890	1.348718	1.300366
00:00:00.699	1.304029	1.322344	1.305495
00:00:00.700	1.307692	1.305495	1.309158
00:00:00.700	1.309158	1.310623	1.305495
00:00:00.700	1.304762	1.326007	1.309158
00:00:00.703	1.305495	1.354579	1.309890
00:00:00.703	1.295971	1.387546	1.298168
00:00:00.703	1.316484	1.372894	1.300366
00:00:00.703	1.332601	1.334066	1.306227
00:00:00.703	1.334066	1.244689	1.304762
00:00:00.703	1.329670	1.143590	1.297436
00:00:00.703	1.336264	1.160440	1.304029
00:00:00.703	1.323810	1.222711	1.306960
00:00:00.704	1.312088	1.256410	1.300366
00:00:00.704	1.310623	1.290842	1.306227
00:00:00.704	1.303297	1.330403	1.308425
00:00:00.705	1.295238	1.361172	1.296703
00:00:00.737	1.289377	1.371429	1.302564
00:00:00.737	1.305495	1.364103	1.304762
00:00:00.738	1.308425	1.340659	1.305495
00:00:00.738	1.311355	1.320879	1.310623
00:00:00.738	1.302564	1.271062	1.312088
00:00:00.739	1.305495	1.314286	1.320147
00:00:00.739	1.312821	1.328938	1.314286
00:00:00.739	1.315018	1.318681	1.317216
00:00:00.740	1.315018	1.336264	1.315018
00:00:00.740	1.319414	1.305495	1.306227
00:00:00.741	1.310623	1.252015	1.299634
00:00:00.741	1.323077	1.276190	1.303297
00:00:00.742	1.318681	1.267399	1.298901
00:00:00.742	1.305495	1.299634	1.298901
00:00:00.742	1.314286	1.320879	1.300366
00:00:00.742	1.311355	1.321612	1.304029
00:00:00.743	1.304762	1.337729	1.306227
00:00:00.743	1.302564	1.424176	1.306960
00:00:00.743	1.293773	1.485714	1.306960
00:00:00.744	1.300366	1.417582	1.300366
00:00:00.744	1.297436	1.318681	1.300366
00:00:00.744	1.298901	1.220513	1.309890
00:00:00.745	1.301832	1.112821	1.304029
00:00:00.745	1.306227	1.086447	1.295971
00:00:00.746	1.315018	1.203663	1.304762
