timestamp	ch1	ch2	ch3
00:00:00.000	1.325275	1.296703	1.317216
00:00:00.000	1.317949	1.298901	1.306227
00:00:00.001	1.317949	1.307692	1.303297
00:00:00.001	1.304029	1.319414	1.307692
00:00:00.002	1.306960	1.330403	1.310623
00:00:00.002	1.286447	1.325275	1.300366
00:00:00.002	1.302564	1.369963	1.302564
00:00:00.003	1.292308	1.358242	1.307692
00:00:00.003	1.291575	1.293040	1.304029
00:00:00.003	1.295238	1.257143	1.303297
00:00:00.004	1.304762	1.241026	1.309158
00:00:00.004	1.298901	1.249084	1.306960
00:00:00.004	1.319414	1.274725	1.305495
00:00:00.005	1.320147	1.288645	1.295238
00:00:00.005	1.323810	1.303297	1.300366
00:00:00.005	1.331136	1.316484	1.300366
00:00:00.006	1.316484	1.308425	1.298901
00:00:00.006	1.327473	1.336996	1.306960
00:00:00.007	1.320147	1.341392	1.303297
00:00:00.007	1.305495	1.325275	1.292308
00:00:00.008	1.320147	1.328938	1.307692
00:00:00.008	1.311355	1.326007	1.320879
00:00:00.008	1.302564	1.323077	1.310623
00:00:00.008	1.300366	1.346520	1.313553
00:00:00.009	1.302564	1.326740	1.306960
00:00:00.041	1.304029	1.295971	1.303297
00:00:00.041	1.301832	1.320879	1.305495
00:00:00.042	1.309890	1.288645	1.306227
00:00:00.042	1.305495	1.251282	1.297436
00:00:00.042	1.310623	1.234432	1.304029
00:00:00.043	1.319414	1.255678	1.307692
00:00:00.043	1.327473	1.292308	1.312821
00:00:00.043	1.323077	1.317216	1.309890
00:00:00.044	1.310623	1.323810	1.303297
00:00:00.044	1.309158	1.294505	1.297436
00:00:00.044	1.317949	1.316484	1.304029
00:00:00.045	1.304762	1.309890	1.308425
00:00:00.045	1.307692	1.304029	1.306960
00:00:00.046	1.295971	1.284249	1.296703
00:00:00.046	1.295238	1.310623	1.300366
00:00:00.046	1.290842	1.334799	1.295971
00:00:00.047	1.299634	1.320147	1.298901
00:00:00.047	1.299634	1.330403	1.299634
00:00:00.047	1.304762	1.332601	1.307692
00:00:00.048	1.317216	1.317949	1.299634
00:00:00.048	1.330403	1.315018	1.306227
00:00:00.048	1.314286	1.304029	1.309158
00:00:00.049	1.309890	1.294505	1.300366
00:00:00.049	1.335531	1.280586	1.300366
00:00:00.049	1.326740	1.269597	1.309158
00:00:00.050	1.314286	1.276190	1.302564
00:00:00.050	1.302564	1.287179	1.299634
00:00:00.051	1.316484	1.328938	1.306960
00:00:00.051	1.312821	1.345788	1.309158
00:00:00.051	1.307692	1.352381	1.305495
00:00:00.052	1.298168	1.347253	1.306960
00:00:00.052	1.291575	1.312821	1.292308
00:00:00.052	1.292308	1.316484	1.301832
00:00:00.056	1.291575	1.301832	1.299634
00:00:00.056	1.297436	1.290110	1.302564
00:00:00.056	1.298168	1.290842	1.292308
00:00:00.056	1.315751	1.317216	1.308425
00:00:00.056	1.324542	1.310623	1.309890
00:00:00.056	1.330403	1.285714	1.304029
00:00:00.056	1.319414	1.277656	1.298901
00:00:00.056	1.333333	1.309158	1.309890
00:00:00.056	1.323810	1.297436	1.300366
00:00:00.056	1.315018	1.277656	1.297436
00:00:00.056	1.320147	1.299634	1.309158
00:00:00.057	1.312088	1.284249	1.305495
00:00:00.057	1.318681	1.302564	1.303297
00:00:00.057	1.307692	1.321612	1.310623
00:00:00.060	1.291575	1.357509	1.304762
00:00:00.060	1.298168	1.381685	1.307692
00:00:00.060	1.296703	1.373626	1.304029
00:00:00.091	1.295971	1.326007	1.309890
00:00:00.092	1.299634	1.240293	1.291575
00:00:00.092	1.303297	1.219780	1.293040
00:00:00.092	1.310623	1.257143	1.300366
00:00:00.092	1.312088	1.293773	1.303297
00:00:00.092	1.311355	1.336264	1.307692
00:00:00.093	1.318681	1.343590	1.302564
00:00:00.093	1.324542	1.308425	1.300366
00:00:00.093	1.323810	1.290842	1.307692
00:00:00.094	1.320879	1.273260	1.309890
00:00:00.094	1.328205	1.245421	1.306227
00:00:00.095	1.324542	1.249817	1.311355
00:00:00.095	1.317949	1.289377	1.308425
00:00:00.095	1.300366	1.305495	1.290110
00:00:00.096	1.297436	1.340659	1.308425
00:00:00.096	1.297436	1.347985	1.309158
00:00:00.096	1.292308	1.330403	1.305495
00:00:00.097	1.298168	1.323810	1.309158
00:00:00.097	1.308425	1.306960	1.312088
00:00:00.097	1.303297	1.282051	1.294505
00:00:00.098	1.311355	1.300366	1.304762
00:00:00.098	1.317216	1.303297	1.306960
00:00:00.098	1.306227	1.312821	1.306960
00:00:00.099	1.326007	1.328938	1.309158
00:00:00.099	1.317949	1.321612	1.313553
00:00:00.100	1.320147	1.331868	1.309890
00:00:00.100	1.321612	1.331868	1.306960
00:00:00.100	1.310623	1.309158	1.306227
00:00:00.101	1.317216	1.310623	1.309158
00:00:00.101	1.300366	1.306227	1.294505
00:00:00.101	1.304029	1.311355	1.312088
00:00:00.102	1.298901	1.306227	1.304762
00:00:00.102	1.288645	1.290110	1.293040
00:00:00.102	1.303297	1.307692	1.303297
00:00:00.103	1.298901	1.307692	1.300366
00:00:00.103	1.289377	1.287179	1.298901
00:00:00.103	1.311355	1.295971	1.306960
00:00:00.104	1.313553	1.298168	1.306227
00:00:00.104	1.315751	1.304762	1.299634
00:00:00.105	1.328205	1.318681	1.304762
00:00:00.105	1.318681	1.313553	1.308425
00:00:00.105	1.319414	1.291575	1.300366
00:00:00.106	1.328938	1.291575	1.308425
00:00:00.106	1.327473	1.285714	1.295971
00:00:00.106	1.321612	1.301832	1.310623
00:00:00.107	1.307692	1.304762	1.298901
00:00:00.107	1.295238	1.313553	1.306960
00:00:00.107	1.304762	1.312821	1.304762
00:00:00.108	1.296703	1.321612	1.308425
00:00:00.108	1.295238	1.331868	1.310623
00:00:00.140	1.291575	1.322344	1.307692
00:00:00.141	1.298901	1.312821	1.306227
00:00:00.141	1.305495	1.306227	1.309158
00:00:00.141	1.313553	1.295238	1.304762
00:00:00.142	1.309158	1.288645	1.303297
00:00:00.142	1.317949	1.281319	1.299634
00:00:00.142	1.320147	1.278388	1.295971
00:00:00.143	1.332601	1.308425	1.298168
00:00:00.144	1.330403	1.321612	1.290842
00:00:00.144	1.313553	1.315751	1.300366
00:00:00.144	1.323810	1.347985	1.306960
00:00:00.144	1.316484	1.342125	1.313553
00:00:00.145	1.304029	1.312821	1.308425
00:00:00.145	1.305495	1.264469	1.306227
00:00:00.145	1.294505	1.268864	1.304029
00:00:00.146	1.290110	1.281319	1.302564
00:00:00.146	1.300366	1.314286	1.306960
00:00:00.146	1.291575	1.377289	1.305495
00:00:00.147	1.306960	1.379487	1.305495
00:00:00.147	1.312088	1.341392	1.313553
00:00:00.147	1.310623	1.292308	1.304762
00:00:00.148	1.318681	1.276923	1.303297
00:00:00.148	1.326740	1.276190	1.305495
00:00:00.149	1.325275	1.271062	1.303297
00:00:00.150	1.323810	1.235165	1.300366
00:00:00.150	1.320879	1.269597	1.298901
00:00:00.150	1.322344	1.291575	1.296703
00:00:00.150	1.312088	1.315751	1.317216
00:00:00.150	1.306960	1.295971	1.306227
00:00:00.151	1.306227	1.293773	1.302564
00:00:00.151	1.312088	1.323810	1.308425
00:00:00.151	1.294505	1.321612	1.300366
00:00:00.153	1.297436	1.331868	1.298901
00:00:00.153	1.290110	1.339927	1.294505
00:00:00.153	1.306227	1.325275	1.287179
00:00:00.153	1.311355	1.323810	1.315751
00:00:00.153	1.309890	1.312088	1.309158
00:00:00.156	1.312088	1.315018	1.309158
00:00:00.156	1.317216	1.312821	1.306227
00:00:00.156	1.317216	1.317949	1.309158
00:00:00.156	1.320879	1.310623	1.302564
00:00:00.156	1.318681	1.284249	1.309890
00:00:00.156	1.309890	1.263736	1.293773
00:00:00.156	1.309158	1.288645	1.299634
00:00:00.156	1.323077	1.315018	1.308425
00:00:00.156	1.321612	1.317949	1.306960
00:00:00.157	1.304762	1.320879	1.304029
00:00:00.157	1.299634	1.323810	1.309890
00:00:00.157	1.295971	1.333333	1.309890
00:00:00.158	1.309890	1.315018	1.306227
00:00:00.190	1.297436	1.310623	1.304029
00:00:00.190	1.302564	1.313553	1.304029
00:00:00.191	1.297436	1.284982	1.298901
00:00:00.191	1.308425	1.287912	1.310623
00:00:00.191	1.309158	1.277656	1.300366
00:00:00.192	1.315018	1.268864	1.293773
00:00:00.192	1.320147	1.266667	1.315751
00:00:00.192	1.327473	1.282051	1.309890
00:00:00.193	1.326740	1.317216	1.312821
00:00:00.193	1.329670	1.349451	1.315751
00:00:00.194	1.317949	1.345788	1.300366
00:00:00.194	1.310623	1.332601	1.295971
00:00:00.194	1.304762	1.312088	1.289377
00:00:00.195	1.308425	1.331868	1.293773
00:00:00.195	1.295971	1.318681	1.298901
00:00:00.196	1.284249	1.315751	1.305495
00:00:00.196	1.299634	1.317216	1.306227
00:00:00.196	1.293773	1.310623	1.300366
00:00:00.196	1.309158	1.326007	1.312821
00:00:00.197	1.305495	1.326740	1.314286
00:00:00.197	1.304762	1.298901	1.293773
00:00:00.198	1.317949	1.288645	1.309158
00:00:00.198	1.317216	1.283516	1.306960
00:00:00.198	1.320147	1.276923	1.304029
00:00:00.199	1.316484	1.241758	1.293040
00:00:00.199	1.337729	1.243956	1.300366
00:00:00.199	1.332601	1.261538	1.304762
00:00:00.200	1.328205	1.267399	1.306227
00:00:00.200	1.321612	1.312088	1.309158
00:00:00.200	1.320879	1.334799	1.312821
00:00:00.201	1.305495	1.345055	1.312088
00:00:00.201	1.304029	1.349451	1.311355
00:00:00.201	1.292308	1.335531	1.306960
00:00:00.202	1.290110	1.325275	1.304762
00:00:00.202	1.288645	1.312088	1.300366
00:00:00.203	1.300366	1.306227	1.304762
00:00:00.203	1.297436	1.304029	1.312821
00:00:00.203	1.311355	1.315018	1.311355
00:00:00.204	1.314286	1.320879	1.309158
00:00:00.204	1.320147	1.314286	1.305495
00:00:00.204	1.320879	1.285714	1.297436
00:00:00.205	1.329670	1.291575	1.306960
00:00:00.205	1.326007	1.288645	1.306227
00:00:00.205	1.324542	1.300366	1.305495
00:00:00.206	1.326740	1.318681	1.318681
00:00:00.206	1.320879	1.347253	1.309158
00:00:00.206	1.309158	1.412454	1.306960
00:00:00.207	1.301099	1.435897	1.287179
00:00:00.207	1.295971	1.396337	1.284982
00:00:00.208	1.287179	1.317949	1.287912
00:00:00.240	1.300366	1.257143	1.293040
00:00:00.240	1.299634	1.224176	1.298901
00:00:00.240	1.297436	1.235165	1.314286
00:00:00.241	1.307692	1.216850	1.310623
00:00:00.241	1.313553	1.256410	1.319414
00:00:00.241	1.322344	1.237363	1.302564
00:00:00.243	1.329670	1.241758	1.307692
00:00:00.243	1.325275	1.228571	1.295238
00:00:00.243	1.328938	1.248352	1.312821
00:00:00.243	1.321612	1.210989	1.301832
00:00:00.243	1.315751	1.273993	1.301832
00:00:00.244	1.319414	1.341392	1.312088
00:00:00.244	1.304029	1.342857	1.304762
00:00:00.244	1.291575	1.352381	1.297436
00:00:00.245	1.300366	1.363370	1.308425
00:00:00.245	1.288645	1.346520	1.296703
00:00:00.245	1.292308	1.349451	1.291575
00:00:00.247	1.299634	1.339194	1.312088
00:00:00.247	1.283516	1.323077	1.300366
00:00:00.247	1.294505	1.316484	1.300366
00:00:00.248	1.313553	1.318681	1.306227
00:00:00.248	1.313553	1.320879	1.305495
00:00:00.250	1.312088	1.305495	1.309890
00:00:00.250	1.319414	1.293040	1.294505
00:00:00.250	1.322344	1.295238	1.296703
00:00:00.250	1.322344	1.306960	1.304029
00:00:00.250	1.333333	1.300366	1.306960
00:00:00.250	1.318681	1.295238	1.305495
00:00:00.250	1.315751	1.301832	1.303297
00:00:00.250	1.314286	1.314286	1.306227
00:00:00.250	1.308425	1.325275	1.308425
00:00:00.253	1.303297	1.328938	1.298901
00:00:00.253	1.288645	1.314286	1.300366
00:00:00.253	1.291575	1.323077	1.300366
00:00:00.253	1.293040	1.322344	1.298901
00:00:00.253	1.291575	1.313553	1.291575
00:00:00.253	1.306960	1.339194	1.309890
00:00:00.253	1.304029	1.320879	1.298168
00:00:00.253	1.321612	1.329670	1.312821
00:00:00.254	1.314286	1.309158	1.309158
00:00:00.254	1.309158	1.271795	1.300366
00:00:00.254	1.345788	1.278388	1.305495
00:00:00.255	1.328938	1.282784	1.305495
00:00:00.255	1.315751	1.250549	1.296703
00:00:00.255	1.312088	1.270330	1.303297
00:00:00.256	1.298168	1.288645	1.304762
00:00:00.256	1.306960	1.298901	1.294505
00:00:00.257	1.306960	1.334799	1.302564
00:00:00.257	1.297436	1.338462	1.308425
00:00:00.257	1.290842	1.332601	1.310623
00:00:00.289	1.287179	1.333333	1.309158
00:00:00.290	1.304029	1.324542	1.301832
00:00:00.290	1.309158	1.347985	1.306960
00:00:00.290	1.309890	1.346520	1.300366
00:00:00.291	1.302564	1.311355	1.292308
00:00:00.291	1.300366	1.280586	1.297436
00:00:00.292	1.316484	1.249817	1.298168
00:00:00.292	1.339927	1.257875	1.309890
00:00:00.292	1.330403	1.267399	1.309158
00:00:00.293	1.316484	1.260806	1.306227
00:00:00.293	1.312088	1.271795	1.298901
00:00:00.293	1.301832	1.290110	1.289377
00:00:00.294	1.311355	1.306227	1.308425
00:00:00.294	1.295238	1.311355	1.298168
00:00:00.294	1.302564	1.327473	1.306227
00:00:00.295	1.293773	1.348718	1.306227
00:00:00.295	1.276923	1.358974	1.302564
00:00:00.296	1.282051	1.356044	1.306960
00:00:00.296	1.295238	1.356777	1.315018
00:00:00.296	1.293040	1.326007	1.306227
00:00:00.297	1.304762	1.319414	1.304762
00:00:00.297	1.307692	1.339927	1.300366
00:00:00.297	1.312821	1.327473	1.305495
00:00:00.298	1.333333	1.274725	1.304029
00:00:00.298	1.330403	1.252747	1.303297
00:00:00.298	1.335531	1.279853	1.309890
00:00:00.299	1.336996	1.268132	1.305495
00:00:00.299	1.321612	1.212454	1.303297
00:00:00.299	1.318681	1.238828	1.297436
00:00:00.301	1.309158	1.316484	1.303297
00:00:00.301	1.292308	1.377289	1.300366
00:00:00.301	1.292308	1.381685	1.294505
00:00:00.301	1.303297	1.344322	1.306227
00:00:00.301	1.304029	1.326007	1.307692
00:00:00.302	1.298168	1.299634	1.312821
00:00:00.302	1.294505	1.243956	1.299634
00:00:00.302	1.304762	1.213919	1.299634
00:00:00.303	1.307692	1.219780	1.303297
00:00:00.303	1.315018	1.260806	1.307692
00:00:00.303	1.324542	1.231502	1.304762
00:00:00.304	1.323810	1.255678	1.308425
00:00:00.304	1.314286	1.317216	1.307692
00:00:00.304	1.323810	1.347253	1.312088
00:00:00.305	1.332601	1.340659	1.303297
00:00:00.305	1.309158	1.334799	1.300366
00:00:00.306	1.305495	1.348718	1.306227
00:00:00.306	1.319414	1.327473	1.298168
00:00:00.306	1.316484	1.322344	1.307692
00:00:00.307	1.302564	1.331868	1.305495
00:00:00.307	1.301832	1.358974	1.308425
00:00:00.339	1.300366	1.369231	1.306227
00:00:00.339	1.305495	1.338462	1.296703
00:00:00.340	1.309890	1.315018	1.287179
00:00:00.340	1.312088	1.315018	1.304762
00:00:00.342	1.298168	1.295971	1.297436
00:00:00.342	1.303297	1.312088	1.312821
00:00:00.342	1.323077	1.294505	1.315751
00:00:00.345	1.304029	1.291575	1.301832
00:00:00.345	1.314286	1.328938	1.306960
00:00:00.345	1.326007	1.338462	1.309890
00:00:00.345	1.326740	1.301099	1.305495
00:00:00.345	1.350183	1.347253	1.312821
00:00:00.345	1.330403	1.317216	1.300366
00:00:00.345	1.303297	1.323077	1.298168
00:00:00.345	1.279853	1.301832	1.298901
00:00:00.345	1.294505	1.268864	1.295971
00:00:00.345	1.276923	1.248352	1.288645
00:00:00.345	1.290842	1.227106	1.298901
00:00:00.348	1.290842	1.225641	1.298168
00:00:00.348	1.304029	1.319414	1.296703
00:00:00.348	1.319414	1.362637	1.287912
00:00:00.348	1.338462	1.365568	1.304029
00:00:00.348	1.350183	1.356777	1.322344
00:00:00.348	1.334799	1.367766	1.327473
00:00:00.348	1.315018	1.402930	1.303297
00:00:00.348	1.318681	1.395604	1.274725
00:00:00.348	1.339194	1.426374	1.280586
00:00:00.349	1.336996	1.425641	1.284982
00:00:00.349	1.319414	1.368498	1.284982
00:00:00.350	1.308425	1.283516	1.319414
00:00:00.350	1.273993	1.111355	1.323810
00:00:00.350	1.269597	1.066667	1.327473
00:00:00.351	1.309158	1.150183	1.347253
00:00:00.351	1.298168	1.104029	1.344322
00:00:00.351	1.297436	1.112821	1.340659
00:00:00.352	1.293773	1.286447	1.339927
00:00:00.353	1.293773	1.384615	1.323810
00:00:00.353	1.263736	1.429304	1.303297
00:00:00.353	1.281319	1.438095	1.300366
00:00:00.353	1.279853	1.437363	1.291575
00:00:00.353	1.276923	1.457143	1.294505
00:00:00.354	1.302564	1.450549	1.300366
00:00:00.354	1.300366	1.294505	1.297436
00:00:00.355	1.319414	1.217582	1.297436
00:00:00.355	1.364103	1.181685	1.295238
00:00:00.355	1.358242	1.154579	1.280586
00:00:00.356	1.347253	1.254212	1.291575
00:00:00.356	1.343590	1.374359	1.287912
00:00:00.356	1.327473	1.378755	1.290842
00:00:00.357	1.307692	1.365568	1.292308
00:00:00.389	1.297436	1.247619	1.293773
00:00:00.389	1.304762	1.177289	1.293040
00:00:00.390	1.308425	1.188278	1.305495
00:00:00.390	1.300366	1.182418	1.302564
00:00:00.390	1.309158	1.270330	1.287179
00:00:00.391	1.331136	1.452747	1.287912
00:00:00.391	1.318681	1.431502	1.295238
00:00:00.391	1.315751	1.401465	1.264469
00:00:00.392	1.319414	1.344322	1.239560
00:00:00.392	1.313553	1.257143	1.230037
00:00:00.392	1.309158	1.155311	1.239560
00:00:00.393	1.295971	1.128205	1.264469
00:00:00.393	1.293040	1.219048	1.295971
00:00:00.393	1.306227	1.345055	1.358242
00:00:00.394	1.314286	1.428571	1.391941
00:00:00.394	1.303297	1.473260	1.413187
00:00:00.395	1.313553	1.497436	1.415385
00:00:00.395	1.316484	1.482784	1.405861
00:00:00.395	1.291575	1.389744	1.379487
00:00:00.396	1.282051	1.391209	1.366300
00:00:00.396	1.288645	1.569231	1.340659
00:00:00.396	1.312088	1.690842	1.310623
00:00:00.397	1.320879	1.619048	1.287179
00:00:00.397	1.312821	1.454945	1.276923
00:00:00.397	1.335531	1.260806	1.303297
00:00:00.398	1.329670	0.986081	1.303297
00:00:00.398	1.301832	0.646886	1.276923
00:00:00.398	1.308425	0.600000	1.284249
00:00:00.399	1.332601	0.889377	1.296703
00:00:00.399	1.326007	1.195604	1.295238
00:00:00.400	1.301832	1.229304	1.276923
00:00:00.400	1.298168	1.289377	1.287912
00:00:00.400	1.299634	1.441026	1.287912
00:00:00.401	1.290842	1.443223	1.283516
00:00:00.402	1.290842	1.430037	1.262271
00:00:00.402	1.301832	1.407326	1.265934
00:00:00.402	1.312088	1.465934	1.246154
00:00:00.402	1.343590	1.579487	1.294505
00:00:00.402	1.330403	1.475458	1.291575
00:00:00.403	1.326740	1.578022	1.317949
00:00:00.403	1.317216	1.701832	1.329670
00:00:00.403	1.306960	1.561905	1.332601
00:00:00.404	1.327473	1.356044	1.309158
00:00:00.405	1.309158	1.123810	1.206593
00:00:00.405	1.298901	0.991209	1.181685
00:00:00.405	1.306227	0.926740	1.203663
00:00:00.405	1.315018	0.983883	1.268132
00:00:00.407	1.298168	1.199267	1.315018
00:00:00.407	1.312088	1.230037	1.385348
00:00:00.407	1.308425	1.220513	1.436630
00:00:00.442	1.295238	1.304762	1.447619
00:00:00.442	1.263736	1.410989	1.454945
00:00:00.442	1.258608	1.627106	1.460806
00:00:00.442	1.265201	1.691575	1.447619
00:00:00.442	1.252015	1.656410	1.367766
00:00:00.442	1.290842	1.551648	1.316484
00:00:00.442	1.338462	1.276923	1.272527
00:00:00.442	1.350183	0.984615	1.257875
00:00:00.442	1.341392	0.910623	1.270330
00:00:00.442	1.320147	0.936264	1.262271
00:00:00.442	1.317216	0.827839	1.253480
00:00:00.442	1.319414	1.043223	1.264469
00:00:00.445	1.315751	1.271062	1.284982
00:00:00.445	1.305495	1.420513	1.285714
00:00:00.445	1.315751	1.460806	1.290110
00:00:00.445	1.312088	1.586813	1.306227
00:00:00.445	1.298168	1.671062	1.317216
00:00:00.445	1.292308	1.550916	1.306227
00:00:00.445	1.279853	1.430037	1.273260
00:00:00.445	1.273993	1.380952	1.276923
00:00:00.446	1.298168	1.412454	1.279121
00:00:00.446	1.323810	1.490842	1.284982
00:00:00.446	1.326740	1.409524	1.287179
00:00:00.447	1.325275	1.320879	1.281319
00:00:00.447	1.345788	1.178022	1.298901
00:00:00.447	1.373626	0.982418	1.311355
00:00:00.448	1.362637	1.024908	1.313553
00:00:00.448	1.328938	1.084249	1.331868
00:00:00.449	1.315018	1.280586	1.310623
00:00:00.449	1.300366	1.493773	1.300366
00:00:00.449	1.318681	1.405128	1.309890
00:00:00.450	1.317949	1.457143	1.314286
00:00:00.450	1.291575	1.282051	1.299634
00:00:00.450	1.289377	1.151648	1.284249
00:00:00.451	1.270330	1.153846	1.287912
00:00:00.451	1.273260	1.131136	1.294505
00:00:00.451	1.297436	1.241026	1.305495
00:00:00.452	1.304762	1.484249	1.299634
00:00:00.452	1.312088	1.649817	1.327473
00:00:00.453	1.312821	1.525275	1.318681
00:00:00.453	1.323810	1.440293	1.307692
00:00:00.453	1.338462	1.273260	1.336996
00:00:00.454	1.334799	1.136264	1.317949
00:00:00.454	1.334799	1.194872	1.277656
00:00:00.454	1.317216	1.274725	1.241758
00:00:00.455	1.304762	1.218315	1.252015
00:00:00.455	1.312088	1.104029	1.250549
00:00:00.455	1.298168	1.148718	1.251282
00:00:00.456	1.295238	1.241026	1.251282
00:00:00.456	1.284249	1.377289	1.300366
00:00:00.489	1.317949	1.498168	1.320879
00:00:00.489	1.304029	1.476190	1.345055
00:00:00.489	1.289377	1.342125	1.364835
00:00:00.489	1.290110	1.297436	1.402198
00:00:00.490	1.302564	1.317216	1.394139
00:00:00.490	1.301099	1.306960	1.367766
00:00:00.490	1.320147	1.381685	1.388278
00:00:00.491	1.330403	1.412454	1.369231
00:00:00.491	1.339194	1.373626	1.321612
00:00:00.491	1.318681	1.339194	1.295238
00:00:00.492	1.282784	1.265201	1.268132
00:00:00.492	1.290110	1.281319	1.274725
00:00:00.493	1.299634	1.221978	1.283516
00:00:00.493	1.322344	1.235897	1.284249
00:00:00.493	1.340659	1.282784	1.279853
00:00:00.494	1.350916	1.366300	1.275458
00:00:00.494	1.360440	1.350916	1.275458
00:00:00.494	1.328205	1.309890	1.274725
00:00:00.495	1.339194	1.321612	1.306960
00:00:00.495	1.342125	1.508425	1.339927
00:00:00.495	1.311355	1.659341	1.344322
00:00:00.496	1.270330	1.680586	1.345788
00:00:00.496	1.244689	1.502564	1.323810
00:00:00.496	1.218315	1.283516	1.298168
00:00:00.497	1.244689	0.936996	1.291575
00:00:00.497	1.274725	0.529670	1.268132
00:00:00.498	1.314286	0.835165	1.259341
00:00:00.498	1.337729	1.100366	1.270330
00:00:00.498	1.347253	1.258608	1.296703
00:00:00.499	1.328938	1.273260	1.287912
00:00:00.500	1.334066	1.373626	1.301832
00:00:00.500	1.322344	1.314286	1.305495
00:00:00.500	1.326007	1.391209	1.306960
00:00:00.500	1.323810	1.494505	1.309158
00:00:00.500	1.311355	1.486447	1.315018
00:00:00.502	1.292308	1.447619	1.326007
00:00:00.502	1.290110	1.427839	1.332601
00:00:00.502	1.284249	1.515751	1.323810
00:00:00.503	1.282784	1.547253	1.332601
00:00:00.503	1.309158	1.501832	1.337729
00:00:00.503	1.321612	1.493773	1.249084
00:00:00.503	1.345055	1.246886	1.242491
00:00:00.503	1.339194	1.112821	1.259341
00:00:00.505	1.330403	1.108425	1.269597
00:00:00.505	1.319414	1.054212	1.311355
00:00:00.505	1.306960	1.117949	1.339194
00:00:00.505	1.291575	1.143590	1.367033
00:00:00.505	1.325275	1.169231	1.378755
00:00:00.505	1.330403	1.243956	1.374359
00:00:00.508	1.332601	1.318681	1.343590
00:00:00.538	1.300366	1.399267	1.328205
00:00:00.538	1.284982	1.458608	1.290842
00:00:00.541	1.277656	1.444689	1.276923
00:00:00.541	1.288645	1.451282	1.289377
00:00:00.541	1.276190	1.378022	1.291575
00:00:00.541	1.295238	1.338462	1.311355
00:00:00.541	1.303297	1.241758	1.300366
00:00:00.541	1.328205	1.188278	1.293773
00:00:00.541	1.350916	1.228571	1.274725
00:00:00.541	1.364103	1.295971	1.261538
00:00:00.542	1.358242	1.342125	1.266667
00:00:00.542	1.332601	1.345788	1.279853
00:00:00.542	1.293773	1.317216	1.276923
00:00:00.543	1.298168	1.279121	1.295238
00:00:00.543	1.316484	1.270330	1.328205
00:00:00.543	1.327473	1.302564	1.356044
00:00:00.544	1.320879	1.359707	1.360440
00:00:00.544	1.315018	1.401465	1.346520
00:00:00.544	1.304029	1.403663	1.329670
00:00:00.545	1.271795	1.374359	1.278388
00:00:00.545	1.268132	1.326740	1.271795
00:00:00.545	1.287912	1.298168	1.276923
00:00:00.546	1.297436	1.289377	1.290842
00:00:00.546	1.324542	1.440293	1.309890
00:00:00.547	1.339194	1.476190	1.317949
00:00:00.547	1.341392	1.454945	1.318681
00:00:00.547	1.350916	1.378755	1.338462
00:00:00.548	1.348718	1.267399	1.313553
00:00:00.548	1.309890	1.078388	1.287179
00:00:00.548	1.303297	0.824908	1.267399
00:00:00.549	1.299634	1.033700	1.271062
00:00:00.549	1.291575	1.194139	1.280586
00:00:00.549	1.293773	1.353846	1.301832
00:00:00.550	1.302564	1.360440	1.300366
00:00:00.550	1.289377	1.352381	1.323810
00:00:00.550	1.272527	1.271795	1.328205
00:00:00.551	1.261538	1.361172	1.350183
00:00:00.551	1.276923	1.420513	1.339927
00:00:00.552	1.276923	1.386081	1.326740
00:00:00.552	1.263004	1.301832	1.302564
00:00:00.552	1.291575	1.268864	1.300366
00:00:00.553	1.323077	1.202930	1.296703
00:00:00.553	1.350916	1.246886	1.295971
00:00:00.553	1.369963	1.300366	1.291575
00:00:00.554	1.358974	1.347253	1.286447
00:00:00.554	1.349451	1.381685	1.287912
00:00:00.554	1.342857	1.348718	1.290110
00:00:00.555	1.332601	1.331868	1.286447
00:00:00.555	1.331136	1.370696	1.300366
00:00:00.556	1.311355	1.337729	1.297436
00:00:00.588	1.305495	1.323810	1.298901
00:00:00.588	1.271062	1.329670	1.279121
00:00:00.588	1.265201	1.341392	1.261538
00:00:00.589	1.263004	1.420513	1.257875
00:00:00.589	1.293773	1.453480	1.279121
00:00:00.589	1.307692	1.406593	1.309158
00:00:00.590	1.315751	1.321612	1.341392
00:00:00.590	1.323810	1.218315	1.367033
00:00:00.591	1.329670	1.115751	1.384615
00:00:00.591	1.330403	1.170696	1.353846
00:00:00.591	1.330403	1.298901	1.346520
00:00:00.592	1.315751	1.312821	1.332601
00:00:00.592	1.286447	1.186813	1.306227
00:00:00.592	1.282051	1.235165	1.306960
00:00:00.593	1.282051	1.368498	1.298168
00:00:00.593	1.310623	1.550183	1.315018
00:00:00.593	1.312088	1.493773	1.287179
00:00:00.594	1.317949	1.338462	1.278388
00:00:00.594	1.341392	1.238828	1.296703
00:00:00.594	1.326740	1.174359	1.287912
00:00:00.595	1.315018	1.139194	1.298901
00:00:00.595	1.309890	1.189011	1.288645
00:00:00.596	1.315751	1.250549	1.282784
00:00:00.596	1.317949	1.312821	1.279853
00:00:00.596	1.315751	1.306227	1.298901
00:00:00.597	1.313553	1.342857	1.306227
00:00:00.597	1.317949	1.382418	1.307692
00:00:00.597	1.342857	1.455678	1.311355
00:00:00.599	1.344322	1.455678	1.318681
00:00:00.599	1.328205	1.375092	1.317216
00:00:00.599	1.317949	1.299634	1.320879
00:00:00.600	1.315018	1.230037	1.309158
00:00:00.600	1.300366	1.237363	1.300366
00:00:00.600	1.299634	1.257875	1.282784
00:00:00.600	1.289377	1.276190	1.286447
00:00:00.600	1.288645	1.362637	1.295971
00:00:00.601	1.306960	1.356777	1.295971
00:00:00.601	1.309890	1.284249	1.269597
00:00:00.601	1.319414	1.302564	1.279121
00:00:00.602	1.306227	1.288645	1.287179
00:00:00.602	1.312821	1.399267	1.282051
00:00:00.602	1.323810	1.516484	1.306960
00:00:00.605	1.326007	1.453480	1.317949
00:00:00.605	1.306227	1.260073	1.322344
00:00:00.605	1.325275	1.308425	1.355311
00:00:00.605	1.343590	1.184615	1.310623
00:00:00.605	1.323810	0.914286	1.291575
00:00:00.605	1.312088	0.971429	1.282784
00:00:00.605	1.294505	1.124542	1.269597
00:00:00.605	1.289377	1.317216	1.282051
00:00:00.637	1.306960	1.424908	1.345055
00:00:00.638	1.271795	1.430769	1.364103
00:00:00.638	1.252747	1.334066	1.369231
00:00:00.638	1.276923	1.260806	1.359707
00:00:00.639	1.283516	1.265201	1.337729
00:00:00.639	1.306227	1.339194	1.323077
00:00:00.640	1.328205	1.322344	1.282784
00:00:00.640	1.315751	1.293040	1.285714
00:00:00.640	1.307692	1.351648	1.270330
00:00:00.641	1.294505	1.404396	1.275458
00:00:00.641	1.293040	1.352381	1.270330
00:00:00.641	1.312088	1.273993	1.265934
00:00:00.642	1.325275	1.292308	1.290842
00:00:00.642	1.343590	1.300366	1.291575
00:00:00.642	1.380220	1.315751	1.292308
00:00:00.643	1.366300	1.354579	1.291575
00:00:00.643	1.328205	1.380220	1.284249
00:00:00.643	1.317949	1.355311	1.273260
00:00:00.644	1.289377	1.309158	1.276923
00:00:00.644	1.282784	1.267399	1.304029
00:00:00.646	1.273993	1.264469	1.336996
00:00:00.646	1.276923	1.309890	1.356044
00:00:00.646	1.298168	1.350183	1.364103
00:00:00.646	1.319414	1.470330	1.365568
00:00:00.646	1.317949	1.515018	1.343590
00:00:00.646	1.305495	1.460073	1.299634
00:00:00.647	1.308425	1.389011	1.284982
00:00:00.647	1.309890	1.326740	1.273260
00:00:00.647	1.302564	1.197802	1.267399
00:00:00.648	1.299634	1.186813	1.282051
00:00:00.648	1.317949	0.975824	1.304762
00:00:00.648	1.322344	1.112821	1.310623
00:00:00.649	1.295238	1.321612	1.323810
00:00:00.649	1.312088	1.498168	1.339194
00:00:00.650	1.329670	1.500366	1.347253
00:00:00.650	1.325275	1.519414	1.340659
00:00:00.650	1.316484	1.504029	1.336264
00:00:00.651	1.306227	1.311355	1.306960
00:00:00.651	1.315018	1.103297	1.291575
00:00:00.651	1.314286	1.054212	1.295238
00:00:00.652	1.332601	1.090842	1.290110
00:00:00.652	1.345788	0.992674	1.283516
00:00:00.652	1.353846	1.139927	1.298168
00:00:00.653	1.332601	1.314286	1.299634
00:00:00.653	1.308425	1.419048	1.286447
00:00:00.654	1.343590	1.474725	1.300366
00:00:00.654	1.320879	1.490110	1.300366
00:00:00.654	1.286447	1.418315	1.300366
00:00:00.655	1.298901	1.367033	1.306960
00:00:00.655	1.287179	1.382418	1.319414
00:00:00.687	1.290842	1.411722	1.317216
00:00:00.687	1.287179	1.427106	1.304762
00:00:00.688	1.307692	1.441026	1.312088
00:00:00.688	1.297436	1.394872	1.307692
00:00:00.689	1.283516	1.249084	1.293040
00:00:00.689	1.275458	1.087179	1.289377
00:00:00.689	1.305495	1.072527	1.306227
00:00:00.690	1.324542	1.098901	1.334066
00:00:00.690	1.326740	1.132601	1.329670
00:00:00.691	1.326740	1.192674	1.312088
00:00:00.691	1.328205	1.347253	1.295971
00:00:00.691	1.318681	1.424908	1.295971
00:00:00.691	1.312088	1.523077	1.314286
00:00:00.692	1.295971	1.568498	1.304762
00:00:00.692	1.298901	1.455678	1.306960
00:00:00.692	1.301099	1.320879	1.286447
00:00:00.693	1.294505	1.255678	1.276923
00:00:00.693	1.321612	1.304762	1.271795
00:00:00.694	1.297436	1.257143	1.262271
00:00:00.694	1.301832	1.237363	1.290842
00:00:00.694	1.320879	1.288645	1.312088
00:00:00.698	1.317216	1.267399	1.341392
00:00:00.698	1.323810	1.197070	1.353846
00:00:00.698	1.298901	1.231502	1.345788
00:00:00.698	1.311355	1.281319	1.360440
00:00:00.698	1.328205	1.334799	1.332601
00:00:00.698	1.326007	1.310623	1.300366
00:00:00.698	1.318681	1.326740	1.272527
00:00:00.698	1.316484	1.309158	1.286447
00:00:00.698	1.292308	1.169963	1.276923
00:00:00.698	1.273993	1.242491	1.285714
00:00:00.698	1.279853	1.367033	1.279853
00:00:00.702	1.290842	1.377289	1.294505
00:00:00.702	1.319414	1.298168	1.295971
00:00:00.702	1.330403	1.298168	1.276190
00:00:00.702	1.325275	1.356777	1.292308
00:00:00.702	1.334066	1.398535	1.305495
00:00:00.702	1.322344	1.370696	1.312821
00:00:00.702	1.315751	1.338462	1.308425
00:00:00.702	1.298168	1.452015	1.331136
00:00:00.702	1.276923	1.575824	1.345055
00:00:00.702	1.288645	1.475458	1.318681
00:00:00.702	1.287912	1.365568	1.290110
00:00:00.703	1.317949	1.273993	1.300366
00:00:00.703	1.319414	1.224176	1.317216
00:00:00.703	1.313553	0.934066	1.293040
00:00:00.704	1.336996	1.036630	1.315751
00:00:00.704	1.342857	1.134799	1.328205
00:00:00.704	1.337729	1.156044	1.330403
00:00:00.705	1.315018	1.219048	1.323810
00:00:00.737	1.326007	1.352381	1.243223
00:00:00.737	1.303297	1.503297	1.266667
00:00:00.738	1.268132	1.508425	1.279121
00:00:00.738	1.285714	1.437363	1.293040
00:00:00.738	1.288645	1.299634	1.300366
00:00:00.739	1.302564	1.221978	1.323810
00:00:00.739	1.307692	1.147253	1.337729
00:00:00.739	1.308425	1.217582	1.332601
00:00:00.740	1.304762	1.398535	1.281319
00:00:00.740	1.327473	1.490110	1.298168
00:00:00.740	1.336264	1.483516	1.295971
00:00:00.741	1.317949	1.378022	1.302564
00:00:00.741	1.326007	1.296703	1.306960
00:00:00.741	1.301832	1.156044	1.279853
00:00:00.742	1.282784	1.147985	1.288645
00:00:00.742	1.292308	1.171429	1.314286
00:00:00.743	1.297436	1.277656	1.347253
00:00:00.743	1.295238	1.333333	1.367766
00:00:00.743	1.300366	1.293040	1.347253
00:00:00.744	1.290110	1.378755	1.320879
00:00:00.744	1.303297	1.385348	1.334066
00:00:00.744	1.305495	1.408791	1.322344
00:00:00.745	1.326007	1.369963	1.328938
00:00:00.745	1.315018	1.307692	1.309890
00:00:00.745	1.320147	1.321612	1.300366
