timestamp	ch1	ch2	ch3
00:00:00.000	1.306227	1.272527	1.298168
00:00:00.001	1.309158	1.268132	1.306960
00:00:00.001	1.317216	1.291575	1.308425
00:00:00.001	1.313553	1.275458	1.304762
00:00:00.002	1.307692	1.293040	1.307692
00:00:00.002	1.312088	1.304762	1.311355
00:00:00.004	1.312821	1.306960	1.304762
00:00:00.004	1.316484	1.309158	1.309890
00:00:00.004	1.318681	1.313553	1.306960
00:00:00.004	1.312821	1.306227	1.309890
00:00:00.004	1.307692	1.319414	1.308425
00:00:00.004	1.298901	1.317949	1.295971
00:00:00.006	1.311355	1.345055	1.300366
00:00:00.006	1.300366	1.343590	1.294505
00:00:00.006	1.300366	1.407326	1.293040
00:00:00.006	1.308425	1.402198	1.303297
00:00:00.006	1.303297	1.339194	1.304762
00:00:00.006	1.315751	1.269597	1.311355
00:00:00.009	1.317949	1.251282	1.302564
00:00:00.009	1.312088	1.264469	1.298168
00:00:00.009	1.321612	1.264469	1.309158
00:00:00.009	1.310623	1.254945	1.306960
00:00:00.009	1.309158	1.261538	1.302564
00:00:00.009	1.307692	1.196337	1.298901
00:00:00.009	1.316484	1.249817	1.307692
00:00:00.041	1.314286	1.323077	1.314286
00:00:00.042	1.312088	1.339194	1.304029
00:00:00.042	1.301832	1.334799	1.300366
00:00:00.042	1.306227	1.355311	1.307692
00:00:00.043	1.292308	1.322344	1.295971
00:00:00.043	1.300366	1.321612	1.308425
00:00:00.043	1.309890	1.296703	1.312821
00:00:00.044	1.309890	1.291575	1.303297
00:00:00.044	1.311355	1.312821	1.312821
00:00:00.044	1.312088	1.310623	1.309158
00:00:00.045	1.322344	1.300366	1.291575
00:00:00.045	1.323810	1.312088	1.306960
00:00:00.045	1.312821	1.314286	1.305495
00:00:00.046	1.306227	1.305495	1.295971
00:00:00.046	1.322344	1.312821	1.309158
00:00:00.047	1.312088	1.312821	1.301832
00:00:00.047	1.304762	1.291575	1.296703
00:00:00.047	1.320147	1.307692	1.306960
00:00:00.048	1.301832	1.307692	1.304762
00:00:00.048	1.303297	1.320879	1.301832
00:00:00.048	1.322344	1.309890	1.304029
00:00:00.049	1.312088	1.309890	1.299634
00:00:00.049	1.293773	1.305495	1.300366
00:00:00.049	1.309158	1.323810	1.312821
00:00:00.050	1.310623	1.331136	1.311355
00:00:00.050	1.314286	1.333333	1.312821
00:00:00.050	1.314286	1.322344	1.306227
00:00:00.051	1.304762	1.309158	1.303297
00:00:00.051	1.317216	1.305495	1.306960
00:00:00.052	1.315751	1.279121	1.298901
00:00:00.053	1.316484	1.280586	1.302564
00:00:00.053	1.320147	1.298901	1.303297
00:00:00.053	1.313553	1.314286	1.305495
00:00:00.053	1.304029	1.297436	1.299634
00:00:00.053	1.313553	1.293040	1.306960
00:00:00.054	1.312088	1.311355	1.298168
00:00:00.054	1.301099	1.328938	1.295238
00:00:00.054	1.311355	1.341392	1.305495
00:00:00.055	1.295971	1.316484	1.295238
00:00:00.055	1.311355	1.316484	1.313553
00:00:00.055	1.296703	1.345055	1.298168
00:00:00.056	1.304029	1.289377	1.306227
00:00:00.056	1.314286	1.219048	1.307692
00:00:00.057	1.314286	1.220513	1.312088
00:00:00.057	1.307692	1.341392	1.306227
00:00:00.057	1.317949	1.402198	1.309158
00:00:00.058	1.312088	1.391941	1.299634
00:00:00.058	1.312088	1.316484	1.306227
00:00:00.058	1.312088	1.246886	1.308425
00:00:00.059	1.327473	1.215385	1.298168
00:00:00.091	1.319414	1.245421	1.306227
00:00:00.091	1.310623	1.283516	1.303297
00:00:00.092	1.315018	1.317949	1.302564
00:00:00.092	1.312088	1.325275	1.295971
00:00:00.092	1.309158	1.304029	1.300366
00:00:00.093	1.309890	1.284982	1.306960
00:00:00.093	1.310623	1.313553	1.300366
00:00:00.093	1.309890	1.326007	1.299634
00:00:00.094	1.317216	1.313553	1.314286
00:00:00.094	1.303297	1.285714	1.309158
00:00:00.094	1.310623	1.285714	1.308425
00:00:00.095	1.311355	1.309158	1.308425
00:00:00.095	1.309890	1.312088	1.304029
00:00:00.096	1.313553	1.332601	1.309158
00:00:00.096	1.316484	1.354579	1.314286
00:00:00.096	1.309158	1.328938	1.304762
00:00:00.097	1.312088	1.337729	1.304762
00:00:00.097	1.317216	1.346520	1.309158
00:00:00.097	1.317949	1.371429	1.305495
00:00:00.098	1.307692	1.363370	1.298901
00:00:00.098	1.302564	1.331136	1.299634
00:00:00.098	1.295971	1.294505	1.293773
00:00:00.099	1.306227	1.280586	1.307692
00:00:00.099	1.306227	1.284982	1.295971
00:00:00.099	1.309158	1.367033	1.309158
00:00:00.101	1.313553	1.378022	1.305495
00:00:00.101	1.315751	1.307692	1.306960
00:00:00.101	1.311355	1.237363	1.296703
00:00:00.101	1.312088	1.135531	1.300366
00:00:00.101	1.323077	1.047619	1.318681
00:00:00.104	1.320879	1.184615	1.321612
00:00:00.104	1.317216	1.315018	1.312821
00:00:00.104	1.304762	1.342857	1.307692
00:00:00.104	1.309890	1.361172	1.306960
00:00:00.104	1.300366	1.336996	1.291575
00:00:00.104	1.309158	1.344322	1.301832
00:00:00.104	1.310623	1.337729	1.300366
00:00:00.105	1.304762	1.323810	1.299634
00:00:00.105	1.312088	1.331136	1.295971
00:00:00.105	1.310623	1.334066	1.299634
00:00:00.105	1.315018	1.338462	1.306227
00:00:00.106	1.323077	1.341392	1.304762
00:00:00.106	1.314286	1.340659	1.306227
00:00:00.106	1.315018	1.370696	1.305495
00:00:00.107	1.309890	1.361172	1.298901
00:00:00.107	1.304029	1.327473	1.295238
00:00:00.107	1.318681	1.311355	1.307692
00:00:00.108	1.307692	1.265934	1.305495
00:00:00.108	1.313553	1.249817	1.293040
00:00:00.108	1.306227	1.235897	1.299634
00:00:00.141	1.311355	1.241026	1.307692
00:00:00.141	1.298168	1.265201	1.300366
00:00:00.141	1.301832	1.319414	1.302564
00:00:00.142	1.300366	1.358974	1.301832
00:00:00.142	1.300366	1.339927	1.295971
00:00:00.142	1.308425	1.328938	1.309158
00:00:00.143	1.293773	1.298168	1.295238
00:00:00.143	1.295238	1.296703	1.303297
00:00:00.143	1.318681	1.309158	1.312821
00:00:00.144	1.309158	1.312088	1.304029
00:00:00.144	1.322344	1.313553	1.304762
00:00:00.144	1.310623	1.308425	1.310623
00:00:00.145	1.320879	1.313553	1.305495
00:00:00.145	1.318681	1.309890	1.303297
00:00:00.146	1.325275	1.313553	1.307692
00:00:00.146	1.328205	1.314286	1.310623
00:00:00.146	1.313553	1.313553	1.309158
00:00:00.147	1.317949	1.311355	1.306960
00:00:00.147	1.317216	1.306227	1.308425
00:00:00.147	1.300366	1.290110	1.303297
00:00:00.148	1.304029	1.293040	1.295971
00:00:00.148	1.306960	1.306227	1.304762
00:00:00.148	1.295238	1.312088	1.298168
00:00:00.149	1.306227	1.361172	1.309158
00:00:00.149	1.311355	1.348718	1.309890
00:00:00.150	1.307692	1.285714	1.294505
00:00:00.150	1.310623	1.248352	1.300366
00:00:00.150	1.315751	1.268864	1.309158
00:00:00.151	1.305495	1.310623	1.309158
00:00:00.151	1.294505	1.343590	1.304762
00:00:00.151	1.312821	1.386081	1.317216
00:00:00.152	1.298901	1.355311	1.304029
00:00:00.152	1.299634	1.326740	1.304762
00:00:00.152	1.321612	1.321612	1.313553
00:00:00.153	1.317216	1.284982	1.307692
00:00:00.153	1.310623	1.249084	1.293773
00:00:00.153	1.307692	1.204396	1.290842
00:00:00.154	1.309890	1.215385	1.292308
00:00:00.154	1.308425	1.238828	1.298168
00:00:00.155	1.306960	1.248352	1.306960
00:00:00.155	1.294505	1.314286	1.307692
00:00:00.155	1.309158	1.328205	1.309158
00:00:00.156	1.334066	1.324542	1.304029
00:00:00.156	1.313553	1.304029	1.303297
00:00:00.157	1.317949	1.311355	1.304762
00:00:00.157	1.317216	1.324542	1.303297
00:00:00.157	1.312088	1.317949	1.305495
00:00:00.157	1.315751	1.307692	1.302564
00:00:00.158	1.313553	1.309158	1.300366
00:00:00.158	1.317949	1.309158	1.307692
00:00:00.190	1.319414	1.324542	1.303297
00:00:00.191	1.313553	1.351648	1.309158
00:00:00.191	1.312088	1.367766	1.305495
00:00:00.191	1.309158	1.364103	1.306960
00:00:00.192	1.304762	1.338462	1.297436
00:00:00.192	1.315018	1.308425	1.312088
00:00:00.192	1.313553	1.298901	1.314286
00:00:00.193	1.300366	1.286447	1.295971
00:00:00.193	1.312821	1.293773	1.306960
00:00:00.193	1.306227	1.268132	1.300366
00:00:00.194	1.293040	1.271062	1.294505
00:00:00.194	1.304762	1.297436	1.300366
00:00:00.195	1.312088	1.314286	1.295971
00:00:00.195	1.312088	1.315018	1.306960
00:00:00.195	1.313553	1.284982	1.300366
00:00:00.196	1.316484	1.306227	1.307692
00:00:00.196	1.316484	1.335531	1.295971
00:00:00.196	1.317216	1.324542	1.312088
00:00:00.198	1.316484	1.315018	1.304762
00:00:00.198	1.306227	1.388278	1.307692
00:00:00.198	1.315018	1.342857	1.307692
00:00:00.198	1.299634	1.248352	1.307692
00:00:00.198	1.299634	1.235897	1.303297
00:00:00.198	1.314286	1.265934	1.310623
00:00:00.201	1.309158	1.270330	1.312821
00:00:00.201	1.307692	1.255678	1.306227
00:00:00.201	1.317949	1.272527	1.306227
00:00:00.201	1.308425	1.273993	1.292308
00:00:00.201	1.312088	1.298901	1.304762
00:00:00.201	1.319414	1.312821	1.312821
00:00:00.201	1.310623	1.323810	1.304762
00:00:00.201	1.302564	1.312088	1.298901
00:00:00.202	1.320147	1.326740	1.310623
00:00:00.203	1.315751	1.300366	1.299634
00:00:00.203	1.316484	1.308425	1.309158
00:00:00.203	1.316484	1.370696	1.304762
00:00:00.203	1.310623	1.435165	1.306227
00:00:00.204	1.300366	1.398535	1.302564
00:00:00.204	1.312088	1.305495	1.302564
00:00:00.204	1.309158	1.222711	1.306227
00:00:00.205	1.302564	1.221978	1.294505
00:00:00.205	1.303297	1.267399	1.290842
00:00:00.205	1.302564	1.287179	1.299634
00:00:00.206	1.300366	1.312821	1.303297
00:00:00.206	1.315018	1.349451	1.306227
00:00:00.206	1.312821	1.385348	1.304029
00:00:00.207	1.315018	1.381685	1.305495
00:00:00.207	1.323810	1.369231	1.306960
00:00:00.207	1.311355	1.315751	1.309890
00:00:00.208	1.320147	1.267399	1.309890
00:00:00.240	1.320879	1.253480	1.315751
00:00:00.241	1.302564	1.215385	1.308425
00:00:00.241	1.301832	1.227106	1.307692
00:00:00.241	1.341392	1.205128	1.300366
00:00:00.241	1.321612	1.227106	1.290110
00:00:00.242	1.305495	1.276923	1.304029
00:00:00.242	1.306960	1.326740	1.304762
00:00:00.242	1.302564	1.363370	1.303297
00:00:00.243	1.309158	1.372161	1.313553
00:00:00.243	1.313553	1.361172	1.304762
00:00:00.244	1.309890	1.339927	1.304029
00:00:00.244	1.294505	1.348718	1.308425
00:00:00.244	1.326007	1.285714	1.306960
00:00:00.245	1.319414	1.273260	1.307692
00:00:00.245	1.319414	1.312821	1.312088
00:00:00.245	1.312088	1.311355	1.298168
00:00:00.246	1.310623	1.315751	1.304762
00:00:00.246	1.320879	1.319414	1.309890
00:00:00.246	1.318681	1.319414	1.302564
00:00:00.247	1.308425	1.294505	1.292308
00:00:00.247	1.320147	1.317949	1.315018
00:00:00.247	1.313553	1.315751	1.305495
00:00:00.248	1.307692	1.312088	1.296703
00:00:00.248	1.308425	1.323077	1.297436
00:00:00.249	1.306960	1.330403	1.300366
00:00:00.249	1.298901	1.319414	1.288645
00:00:00.249	1.308425	1.330403	1.300366
00:00:00.250	1.304762	1.329670	1.298168
00:00:00.250	1.305495	1.324542	1.303297
00:00:00.250	1.308425	1.304029	1.303297
00:00:00.251	1.309158	1.286447	1.316484
00:00:00.251	1.303297	1.239560	1.303297
00:00:00.251	1.309158	1.276923	1.298901
00:00:00.252	1.304762	1.323810	1.304762
00:00:00.252	1.301832	1.416117	1.316484
00:00:00.252	1.297436	1.438828	1.305495
00:00:00.253	1.294505	1.378755	1.297436
00:00:00.253	1.307692	1.295238	1.310623
00:00:00.254	1.309890	1.212454	1.314286
00:00:00.254	1.310623	1.232234	1.305495
00:00:00.254	1.304762	1.231502	1.292308
00:00:00.255	1.302564	1.259341	1.295238
00:00:00.255	1.310623	1.275458	1.312088
00:00:00.255	1.312088	1.190476	1.293040
00:00:00.256	1.317949	1.250549	1.302564
00:00:00.256	1.323810	1.311355	1.307692
00:00:00.256	1.320879	1.354579	1.302564
00:00:00.257	1.320147	1.391941	1.304029
00:00:00.257	1.320879	1.397070	1.307692
00:00:00.257	1.326740	1.367766	1.307692
00:00:00.290	1.320147	1.315018	1.298168
00:00:00.290	1.314286	1.251282	1.307692
00:00:00.290	1.317949	1.214652	1.295238
00:00:00.291	1.318681	1.251282	1.312821
00:00:00.291	1.306227	1.255678	1.304762
00:00:00.291	1.306227	1.267399	1.304029
00:00:00.292	1.306227	1.304762	1.309890
00:00:00.295	1.304762	1.333333	1.311355
00:00:00.295	1.310623	1.381685	1.321612
00:00:00.295	1.300366	1.393407	1.298168
00:00:00.295	1.313553	1.485714	1.309890
00:00:00.295	1.318681	1.521612	1.315751
00:00:00.295	1.300366	1.416850	1.299634
00:00:00.295	1.299634	1.309158	1.304029
00:00:00.295	1.312088	1.236630	1.315751
00:00:00.295	1.298901	1.126740	1.305495
00:00:00.295	1.326007	1.089377	1.304029
00:00:00.296	1.323810	1.032967	1.287179
00:00:00.296	1.309890	1.158974	1.282784
00:00:00.296	1.315751	1.313553	1.294505
00:00:00.298	1.313553	1.349451	1.301832
00:00:00.298	1.312088	1.347253	1.292308
00:00:00.298	1.317949	1.359707	1.297436
00:00:00.298	1.305495	1.510623	1.329670
00:00:00.298	1.323810	1.502564	1.336996
00:00:00.299	1.330403	1.407326	1.326740
00:00:00.299	1.314286	1.309890	1.319414
00:00:00.299	1.323077	1.261538	1.336996
00:00:00.300	1.326740	1.314286	1.336996
00:00:00.300	1.315018	1.315751	1.327473
00:00:00.300	1.306227	1.235165	1.300366
00:00:00.301	1.288645	1.243223	1.279121
00:00:00.301	1.280586	1.252747	1.281319
00:00:00.301	1.296703	1.279853	1.300366
00:00:00.302	1.292308	1.249817	1.298901
00:00:00.302	1.276923	1.236630	1.290842
00:00:00.303	1.295971	1.318681	1.301832
00:00:00.303	1.283516	1.372894	1.291575
00:00:00.303	1.306227	1.392674	1.310623
00:00:00.304	1.312088	1.352381	1.310623
00:00:00.304	1.312088	1.286447	1.312088
00:00:00.304	1.331136	1.389744	1.316484
00:00:00.305	1.333333	1.424908	1.321612
00:00:00.305	1.323810	1.334799	1.313553
00:00:00.305	1.326007	1.465201	1.313553
00:00:00.306	1.303297	1.469597	1.317216
00:00:00.306	1.312088	1.302564	1.308425
00:00:00.306	1.293773	1.109158	1.289377
00:00:00.307	1.302564	1.009524	1.285714
00:00:00.307	1.315751	1.191209	1.300366
00:00:00.339	1.339927	1.321612	1.312821
00:00:00.340	1.325275	1.219780	1.300366
00:00:00.340	1.309158	1.243223	1.296703
00:00:00.340	1.305495	1.357509	1.305495
00:00:00.341	1.316484	1.363370	1.316484
00:00:00.341	1.306227	1.253480	1.300366
00:00:00.342	1.309890	1.182418	1.280586
00:00:00.342	1.303297	1.214652	1.276190
00:00:00.342	1.315018	1.312821	1.297436
00:00:00.343	1.312821	1.369231	1.309890
00:00:00.343	1.304029	1.300366	1.323077
00:00:00.343	1.295971	1.262271	1.304762
00:00:00.344	1.298168	1.250549	1.302564
00:00:00.344	1.289377	1.303297	1.301832
00:00:00.345	1.290842	1.362637	1.292308
00:00:00.345	1.315751	1.423443	1.294505
00:00:00.345	1.322344	1.403663	1.290110
00:00:00.345	1.333333	1.372894	1.290842
00:00:00.346	1.344322	1.339927	1.313553
00:00:00.346	1.341392	1.349451	1.323810
00:00:00.347	1.328205	1.380952	1.327473
00:00:00.347	1.318681	1.422711	1.328205
00:00:00.347	1.307692	1.458608	1.315751
00:00:00.348	1.291575	1.397802	1.306227
00:00:00.348	1.282784	1.270330	1.306960
00:00:00.348	1.304762	1.229304	1.314286
00:00:00.349	1.298168	1.170696	1.292308
00:00:00.349	1.303297	1.243956	1.290110
00:00:00.349	1.296703	1.290110	1.252747
00:00:00.350	1.300366	1.276923	1.246154
00:00:00.350	1.312088	1.315018	1.279853
00:00:00.350	1.309158	1.367033	1.303297
00:00:00.351	1.318681	1.403663	1.335531
00:00:00.351	1.319414	1.365568	1.341392
00:00:00.352	1.320147	1.234432	1.359707
00:00:00.352	1.319414	1.162637	1.357509
00:00:00.352	1.323810	1.170696	1.345055
00:00:00.353	1.325275	1.205128	1.335531
00:00:00.353	1.319414	1.275458	1.321612
00:00:00.353	1.307692	1.367033	1.302564
00:00:00.354	1.293773	1.398535	1.279121
00:00:00.354	1.282784	1.364103	1.282784
00:00:00.354	1.304762	1.343590	1.289377
00:00:00.355	1.309158	1.341392	1.300366
00:00:00.355	1.309890	1.285714	1.290842
00:00:00.355	1.295238	1.149451	1.283516
00:00:00.357	1.306227	1.275458	1.282051
00:00:00.357	1.313553	1.416117	1.296703
00:00:00.357	1.332601	1.438828	1.304029
00:00:00.357	1.342125	1.339194	1.305495
00:00:00.389	1.316484	1.266667	1.293773
00:00:00.389	1.334799	1.284249	1.309158
00:00:00.391	1.328938	1.251282	1.315018
00:00:00.391	1.319414	1.241758	1.311355
00:00:00.391	1.334799	1.309158	1.320147
00:00:00.391	1.329670	1.265934	1.309158
00:00:00.391	1.314286	1.274725	1.298168
00:00:00.394	1.287179	1.352381	1.298168
00:00:00.394	1.279853	1.416850	1.294505
00:00:00.394	1.276190	1.444689	1.284982
00:00:00.394	1.279853	1.463736	1.289377
00:00:00.394	1.293773	1.355311	1.293040
00:00:00.394	1.309158	1.150183	1.304762
00:00:00.394	1.316484	1.063004	1.296703
00:00:00.394	1.318681	1.046154	1.276190
00:00:00.394	1.325275	1.227839	1.283516
00:00:00.395	1.328938	1.333333	1.304762
00:00:00.395	1.326740	1.355311	1.304762
00:00:00.396	1.343590	1.394139	1.306227
00:00:00.396	1.335531	1.397802	1.307692
00:00:00.396	1.322344	1.366300	1.307692
00:00:00.397	1.317216	1.320879	1.315018
00:00:00.397	1.304762	1.310623	1.306227
00:00:00.397	1.306960	1.284982	1.317949
00:00:00.398	1.301832	1.290110	1.308425
00:00:00.398	1.282784	1.317216	1.318681
00:00:00.398	1.277656	1.390476	1.321612
00:00:00.399	1.278388	1.432234	1.307692
00:00:00.399	1.279121	1.365568	1.304762
00:00:00.399	1.285714	1.295971	1.300366
00:00:00.400	1.296703	1.256410	1.293040
00:00:00.400	1.312821	1.235165	1.300366
00:00:00.401	1.317216	1.178755	1.285714
00:00:00.401	1.320879	1.277656	1.300366
00:00:00.401	1.329670	1.382418	1.299634
00:00:00.402	1.332601	1.360440	1.301832
00:00:00.402	1.330403	1.307692	1.294505
00:00:00.402	1.315751	1.358974	1.296703
00:00:00.403	1.307692	1.368498	1.289377
00:00:00.403	1.331136	1.338462	1.304029
00:00:00.403	1.334066	1.313553	1.316484
00:00:00.404	1.323810	1.307692	1.323810
00:00:00.404	1.315018	1.282051	1.317949
00:00:00.404	1.300366	1.304762	1.313553
00:00:00.405	1.305495	1.373626	1.315751
00:00:00.405	1.309158	1.445421	1.308425
00:00:00.406	1.320147	1.348718	1.308425
00:00:00.406	1.331868	1.250549	1.315751
00:00:00.406	1.331868	1.237363	1.312088
00:00:00.407	1.322344	1.255678	1.304029
00:00:00.439	1.305495	1.200733	1.298901
00:00:00.439	1.295238	1.110623	1.293773
00:00:00.439	1.301832	1.207326	1.304762
00:00:00.440	1.306227	1.323810	1.307692
00:00:00.440	1.301832	1.386081	1.304029
00:00:00.441	1.299634	1.370696	1.300366
00:00:00.441	1.337729	1.356044	1.306227
00:00:00.441	1.326007	1.415385	1.300366
00:00:00.442	1.302564	1.402930	1.281319
00:00:00.442	1.311355	1.440293	1.312821
00:00:00.442	1.310623	1.397802	1.309890
00:00:00.443	1.290842	1.327473	1.306227
00:00:00.443	1.304762	1.323810	1.318681
00:00:00.443	1.298901	1.332601	1.312088
00:00:00.444	1.308425	1.413919	1.305495
00:00:00.444	1.322344	1.373626	1.300366
00:00:00.444	1.338462	1.336996	1.306227
00:00:00.445	1.342857	1.268132	1.302564
00:00:00.445	1.323810	1.005128	1.288645
00:00:00.446	1.318681	0.870330	1.279121
00:00:00.446	1.301832	1.037363	1.284982
00:00:00.446	1.304029	1.200000	1.294505
00:00:00.447	1.279121	1.291575	1.300366
00:00:00.447	1.289377	1.334799	1.312088
00:00:00.447	1.301832	1.359707	1.303297
00:00:00.448	1.301832	1.487912	1.315751
00:00:00.448	1.286447	1.413187	1.304762
00:00:00.448	1.279121	1.269597	1.299634
00:00:00.450	1.287179	1.235165	1.304762
00:00:00.450	1.289377	1.265201	1.307692
00:00:00.450	1.293040	1.280586	1.284249
00:00:00.450	1.312088	1.318681	1.302564
00:00:00.450	1.338462	1.381685	1.306960
00:00:00.451	1.347253	1.388278	1.307692
00:00:00.451	1.360440	1.389011	1.306960
00:00:00.451	1.341392	1.382418	1.305495
00:00:00.455	1.347985	1.375092	1.314286
00:00:00.455	1.344322	1.340659	1.317216
00:00:00.455	1.315751	1.315018	1.319414
00:00:00.455	1.304029	1.313553	1.322344
00:00:00.455	1.287912	1.358242	1.307692
00:00:00.455	1.275458	1.311355	1.296703
00:00:00.455	1.265201	1.272527	1.298168
00:00:00.455	1.266667	1.304029	1.298168
00:00:00.455	1.302564	1.354579	1.319414
00:00:00.455	1.306227	1.379487	1.317949
00:00:00.455	1.304762	1.356044	1.302564
00:00:00.458	1.313553	1.328205	1.314286
00:00:00.458	1.312821	1.252747	1.294505
00:00:00.458	1.317949	1.235897	1.283516
00:00:00.488	1.326007	1.354579	1.295238
00:00:00.490	1.320879	1.406593	1.293773
00:00:00.490	1.328938	1.369963	1.293040
00:00:00.490	1.328205	1.260073	1.293040
00:00:00.490	1.323810	1.156777	1.285714
00:00:00.490	1.331868	1.126740	1.296703
00:00:00.491	1.309890	1.167033	1.290110
00:00:00.491	1.311355	1.306227	1.300366
00:00:00.491	1.311355	1.417582	1.320147
00:00:00.492	1.300366	1.450549	1.336264
00:00:00.492	1.281319	1.416117	1.335531
00:00:00.492	1.293773	1.312088	1.331868
00:00:00.493	1.284249	1.310623	1.309158
00:00:00.493	1.293773	1.345788	1.313553
00:00:00.493	1.292308	1.249817	1.302564
00:00:00.494	1.294505	1.216850	1.304762
00:00:00.494	1.317949	1.191209	1.299634
00:00:00.495	1.319414	1.186081	1.290842
00:00:00.495	1.326740	1.208791	1.303297
00:00:00.495	1.318681	1.287179	1.293040
00:00:00.496	1.322344	1.306227	1.304762
00:00:00.496	1.314286	1.359707	1.305495
00:00:00.496	1.304762	1.487912	1.300366
00:00:00.497	1.329670	1.430769	1.294505
00:00:00.497	1.334799	1.330403	1.307692
00:00:00.497	1.322344	1.415385	1.309158
00:00:00.498	1.300366	1.518681	1.308425
00:00:00.498	1.316484	1.483516	1.314286
00:00:00.499	1.306960	1.336264	1.300366
00:00:00.499	1.292308	1.165568	1.302564
00:00:00.499	1.308425	1.008791	1.298168
00:00:00.500	1.301832	0.966300	1.276923
00:00:00.500	1.315751	1.030037	1.263004
00:00:00.500	1.307692	1.262271	1.279853
00:00:00.501	1.298168	1.375092	1.295971
00:00:00.502	1.305495	1.397070	1.312821
00:00:00.502	1.303297	1.369963	1.312821
00:00:00.502	1.309158	1.381685	1.314286
00:00:00.502	1.309890	1.479853	1.316484
00:00:00.502	1.306227	1.457143	1.300366
00:00:00.503	1.300366	1.397070	1.304029
00:00:00.503	1.290842	1.349451	1.300366
00:00:00.504	1.309890	1.320147	1.320147
00:00:00.504	1.309158	1.235897	1.328205
00:00:00.504	1.297436	1.205861	1.312821
00:00:00.505	1.312088	1.283516	1.320147
00:00:00.505	1.320147	1.224176	1.310623
00:00:00.505	1.319414	1.206593	1.302564
00:00:00.506	1.309890	1.272527	1.283516
00:00:00.506	1.313553	1.353114	1.274725
00:00:00.538	1.326007	1.391941	1.295971
00:00:00.539	1.310623	1.400000	1.294505
00:00:00.539	1.298901	1.406593	1.302564
00:00:00.539	1.306227	1.377289	1.308425
00:00:00.540	1.304029	1.268132	1.311355
00:00:00.540	1.293040	1.238095	1.306227
00:00:00.540	1.315751	1.282051	1.320147
00:00:00.541	1.323077	1.229304	1.315751
00:00:00.541	1.327473	1.136264	1.305495
00:00:00.541	1.327473	1.233700	1.308425
00:00:00.542	1.312821	1.399267	1.300366
00:00:00.542	1.295238	1.384615	1.306227
00:00:00.542	1.293773	1.435897	1.300366
00:00:00.543	1.307692	1.425641	1.309158
00:00:00.543	1.309158	1.330403	1.312821
00:00:00.544	1.303297	1.200733	1.297436
00:00:00.544	1.290842	1.039560	1.286447
00:00:00.544	1.284249	1.065934	1.281319
00:00:00.545	1.309158	1.246886	1.293773
00:00:00.545	1.321612	1.356044	1.297436
00:00:00.545	1.325275	1.331868	1.300366
00:00:00.546	1.337729	1.312821	1.294505
00:00:00.546	1.327473	1.451282	1.292308
00:00:00.546	1.320147	1.575824	1.319414
00:00:00.547	1.306960	1.561172	1.325275
00:00:00.547	1.304029	1.522344	1.326740
00:00:00.549	1.323810	1.375092	1.321612
00:00:00.549	1.310623	1.200000	1.309890
00:00:00.549	1.300366	1.139194	1.312821
00:00:00.551	1.314286	1.171429	1.319414
00:00:00.551	1.309890	1.107692	1.308425
00:00:00.551	1.296703	1.298901	1.300366
00:00:00.551	1.299634	1.325275	1.309890
00:00:00.551	1.292308	1.285714	1.317949
00:00:00.551	1.293040	1.215385	1.307692
00:00:00.551	1.309158	1.153114	1.300366
00:00:00.551	1.331136	1.232967	1.297436
00:00:00.551	1.322344	1.335531	1.308425
00:00:00.554	1.315751	1.400000	1.302564
00:00:00.554	1.318681	1.410989	1.301832
00:00:00.554	1.318681	1.374359	1.307692
00:00:00.554	1.326740	1.320147	1.303297
00:00:00.554	1.329670	1.290842	1.290842
00:00:00.554	1.334799	1.313553	1.309890
00:00:00.554	1.320879	1.315751	1.295238
00:00:00.554	1.298901	1.406593	1.300366
00:00:00.555	1.287912	1.469597	1.304762
00:00:00.555	1.284249	1.400733	1.302564
00:00:00.555	1.284982	1.375824	1.314286
00:00:00.556	1.276190	1.347253	1.297436
00:00:00.588	1.295971	1.232967	1.293040
00:00:00.588	1.332601	1.205861	1.294505
00:00:00.589	1.332601	1.217582	1.294505
00:00:00.589	1.319414	1.176557	1.285714
00:00:00.589	1.328938	1.191941	1.295971
00:00:00.590	1.309158	1.262271	1.301832
00:00:00.590	1.312821	1.347985	1.320879
00:00:00.590	1.316484	1.392674	1.319414
00:00:00.591	1.313553	1.369231	1.339927
00:00:00.591	1.303297	1.306960	1.320879
00:00:00.591	1.322344	1.281319	1.317949
00:00:00.592	1.326740	1.298168	1.300366
00:00:00.592	1.315018	1.331868	1.301832
00:00:00.593	1.302564	1.323077	1.300366
00:00:00.593	1.295971	1.292308	1.294505
00:00:00.593	1.307692	1.326740	1.304762
00:00:00.594	1.306227	1.341392	1.294505
00:00:00.594	1.307692	1.327473	1.291575
00:00:00.594	1.320879	1.333333	1.293040
00:00:00.595	1.317216	1.422711	1.285714
00:00:00.595	1.308425	1.498901	1.272527
00:00:00.595	1.295971	1.453480	1.264469
00:00:00.596	1.298901	1.332601	1.269597
00:00:00.596	1.304029	1.238095	1.298901
00:00:00.596	1.307692	1.087179	1.333333
00:00:00.597	1.303297	0.964103	1.318681
00:00:00.597	1.303297	1.096703	1.335531
00:00:00.598	1.316484	1.336996	1.339927
00:00:00.598	1.341392	1.395604	1.343590
00:00:00.598	1.351648	1.368498	1.334066
00:00:00.599	1.335531	1.345788	1.311355
00:00:00.599	1.309890	1.363370	1.296703
00:00:00.599	1.306227	1.318681	1.295238
00:00:00.600	1.298901	1.337729	1.300366
00:00:00.600	1.299634	1.283516	1.300366
00:00:00.600	1.300366	1.218315	1.287912
00:00:00.601	1.299634	1.213919	1.298901
00:00:00.601	1.312088	1.299634	1.316484
00:00:00.602	1.315018	1.364835	1.317216
00:00:00.602	1.306960	1.425641	1.317949
00:00:00.602	1.306227	1.586081	1.334066
00:00:00.603	1.300366	1.608059	1.323077
00:00:00.603	1.303297	1.557509	1.315751
00:00:00.603	1.310623	1.412454	1.300366
00:00:00.604	1.315751	1.232234	1.307692
00:00:00.604	1.315018	1.030769	1.289377
00:00:00.604	1.303297	0.888645	1.280586
00:00:00.605	1.301832	0.975092	1.294505
00:00:00.605	1.320147	1.150183	1.303297
00:00:00.606	1.315018	1.198535	1.293040
00:00:00.638	1.315751	1.287912	1.308425
00:00:00.638	1.311355	1.383883	1.303297
00:00:00.638	1.320147	1.395604	1.306227
00:00:00.639	1.316484	1.321612	1.303297
00:00:00.639	1.309158	1.296703	1.304029
00:00:00.639	1.313553	1.309890	1.309158
00:00:00.640	1.308425	1.341392	1.303297
00:00:00.640	1.300366	1.306960	1.315751
00:00:00.640	1.308425	1.303297	1.305495
00:00:00.641	1.319414	1.390476	1.290842
00:00:00.641	1.320879	1.429304	1.293040
00:00:00.642	1.314286	1.394139	1.295238
00:00:00.642	1.299634	1.343590	1.287179
00:00:00.642	1.298168	1.300366	1.290110
00:00:00.643	1.320879	1.302564	1.318681
00:00:00.643	1.331868	1.339194	1.314286
00:00:00.643	1.312088	1.315751	1.320147
00:00:00.645	1.312088	1.296703	1.317216
00:00:00.645	1.317216	1.273993	1.304029
00:00:00.645	1.328938	1.371429	1.311355
00:00:00.645	1.306227	1.402930	1.306960
00:00:00.645	1.306960	1.331868	1.290842
00:00:00.645	1.306227	1.267399	1.295971
00:00:00.647	1.295238	1.246886	1.306227
00:00:00.647	1.292308	1.285714	1.289377
00:00:00.647	1.293040	1.291575	1.304762
00:00:00.647	1.305495	1.289377	1.310623
00:00:00.647	1.305495	1.257875	1.304762
00:00:00.650	1.320147	1.284982	1.308425
00:00:00.650	1.324542	1.331136	1.309158
00:00:00.650	1.315018	1.364103	1.303297
00:00:00.650	1.306227	1.336996	1.299634
00:00:00.650	1.294505	1.314286	1.304029
00:00:00.650	1.285714	1.252015	1.290110
00:00:00.650	1.315751	1.169963	1.282784
00:00:00.650	1.321612	1.242491	1.292308
00:00:00.651	1.318681	1.304762	1.295238
00:00:00.651	1.319414	1.419780	1.306227
00:00:00.651	1.320147	1.495238	1.312088
00:00:00.652	1.317949	1.494505	1.319414
00:00:00.652	1.334066	1.414652	1.323810
00:00:00.652	1.329670	1.273260	1.334799
00:00:00.653	1.306960	1.198535	1.328205
00:00:00.653	1.308425	1.158242	1.323077
00:00:00.653	1.302564	1.143590	1.312821
00:00:00.654	1.281319	1.186813	1.307692
00:00:00.654	1.288645	1.363370	1.312821
00:00:00.654	1.281319	1.383883	1.294505
00:00:00.655	1.284982	1.309890	1.298901
00:00:00.655	1.312088	1.269597	1.309158
00:00:00.687	1.299634	1.198535	1.284982
00:00:00.688	1.308425	1.241026	1.297436
00:00:00.688	1.317949	1.339194	1.290842
00:00:00.688	1.315018	1.419048	1.288645
00:00:00.689	1.326740	1.440293	1.296703
00:00:00.689	1.323810	1.378755	1.293773
00:00:00.690	1.309158	1.285714	1.297436
00:00:00.690	1.323810	1.200000	1.314286
00:00:00.690	1.347253	1.186081	1.312821
00:00:00.691	1.319414	1.322344	1.315751
00:00:00.691	1.306960	1.366300	1.317216
00:00:00.691	1.293773	1.448352	1.317949
00:00:00.692	1.293040	1.384615	1.307692
00:00:00.692	1.298168	1.281319	1.310623
00:00:00.692	1.312088	1.161172	1.312088
00:00:00.693	1.306960	1.181685	1.305495
00:00:00.693	1.323810	1.313553	1.311355
00:00:00.693	1.333333	1.489377	1.312821
00:00:00.694	1.323077	1.549451	1.325275
00:00:00.694	1.315018	1.449817	1.306960
00:00:00.694	1.301832	1.291575	1.279853
00:00:00.695	1.306227	1.187546	1.270330
00:00:00.695	1.312088	1.133333	1.273993
00:00:00.696	1.296703	1.115751	1.287179
00:00:00.696	1.307692	1.109890	1.300366
00:00:00.696	1.309890	1.209524	1.312088
00:00:00.697	1.312088	1.265201	1.316484
00:00:00.697	1.326740	1.419780	1.325275
00:00:00.697	1.319414	1.473993	1.307692
00:00:00.698	1.316484	1.459341	1.298168
00:00:00.698	1.313553	1.391941	1.279121
00:00:00.698	1.316484	1.356777	1.273260
00:00:00.699	1.309158	1.327473	1.293773
00:00:00.699	1.297436	1.344322	1.295238
00:00:00.699	1.301832	1.332601	1.306960
00:00:00.700	1.311355	1.237363	1.323810
00:00:00.700	1.323810	1.133333	1.312821
00:00:00.701	1.309890	1.175824	1.298901
00:00:00.701	1.287912	1.287912	1.309890
00:00:00.701	1.304029	1.350183	1.328205
00:00:00.702	1.293040	1.370696	1.326007
00:00:00.702	1.287912	1.357509	1.316484
00:00:00.702	1.280586	1.301832	1.312821
00:00:00.703	1.281319	1.241026	1.298168
00:00:00.703	1.279853	1.142857	1.302564
00:00:00.703	1.307692	1.185348	1.300366
00:00:00.704	1.326007	1.291575	1.300366
00:00:00.704	1.332601	1.326740	1.289377
00:00:00.704	1.336264	1.363370	1.304029
00:00:00.705	1.331136	1.375092	1.306227
00:00:00.737	1.322344	1.369231	1.289377
00:00:00.737	1.323810	1.419048	1.293773
00:00:00.738	1.323810	1.458608	1.305495
00:00:00.738	1.298901	1.419780	1.301832
00:00:00.738	1.313553	1.367766	1.304029
00:00:00.743	1.310623	1.286447	1.300366
00:00:00.743	1.298901	1.238095	1.302564
00:00:00.743	1.309158	1.237363	1.313553
00:00:00.743	1.317216	1.262271	1.309158
00:00:00.743	1.309890	1.236630	1.305495
00:00:00.743	1.315018	1.278388	1.298168
00:00:00.743	1.319414	1.375092	1.300366
00:00:00.743	1.321612	1.391209	1.300366
00:00:00.743	1.324542	1.367033	1.307692
00:00:00.743	1.313553	1.374359	1.291575
00:00:00.743	1.308425	1.366300	1.302564
00:00:00.743	1.323810	1.361905	1.307692
00:00:00.743	1.304029	1.348718	1.302564
00:00:00.743	1.304029	1.282051	1.293040
00:00:00.746	1.294505	1.163370	1.276923
00:00:00.746	1.295238	1.092308	1.297436
00:00:00.746	1.305495	1.120147	1.306227
00:00:00.746	1.306960	1.223443	1.291575
00:00:00.746	1.318681	1.385348	1.326740
00:00:00.746	1.307692	1.383150	1.334066
