timestamp	ch1	ch2	ch3
00:00:00.000	1.335531	0.912821	1.279121
00:00:00.002	1.336996	0.831502	1.272527
00:00:00.002	1.329670	1.147985	1.298901
00:00:00.002	1.317216	1.535531	1.296703
00:00:00.002	1.316484	1.591209	1.314286
00:00:00.002	1.309158	1.539927	1.306227
00:00:00.002	1.303297	1.405128	1.289377
00:00:00.005	1.303297	1.189744	1.293040
00:00:00.005	1.300366	1.142857	1.295971
00:00:00.005	1.293773	1.284249	1.288645
00:00:00.005	1.303297	1.240293	1.320879
00:00:00.005	1.315751	1.203663	1.323077
00:00:00.005	1.312088	1.245421	1.315018
00:00:00.007	1.299634	1.258608	1.316484
00:00:00.007	1.307692	1.197802	1.322344
00:00:00.007	1.290842	1.319414	1.317949
00:00:00.007	1.294505	1.376557	1.315018
00:00:00.007	1.269597	1.381685	1.303297
00:00:00.007	1.274725	1.374359	1.305495
00:00:00.007	1.334799	1.328205	1.315751
00:00:00.007	1.347985	1.314286	1.306960
00:00:00.039	1.331868	1.339194	1.306960
00:00:00.043	1.309890	1.342857	1.295238
00:00:00.043	1.313553	1.353114	1.299634
00:00:00.043	1.311355	1.337729	1.305495
00:00:00.043	1.316484	1.372161	1.304762
00:00:00.043	1.308425	1.502564	1.313553
00:00:00.043	1.310623	1.575824	1.315751
00:00:00.043	1.307692	1.459341	1.302564
00:00:00.043	1.319414	1.309158	1.310623
00:00:00.043	1.317949	1.117949	1.294505
00:00:00.043	1.295971	1.092308	1.284982
00:00:00.043	1.306960	1.185348	1.300366
00:00:00.044	1.307692	1.301099	1.302564
00:00:00.045	1.305495	1.211722	1.300366
00:00:00.045	1.315018	1.200000	1.295971
00:00:00.045	1.310623	1.171429	1.308425
00:00:00.045	1.303297	1.121612	1.304029
00:00:00.046	1.305495	1.271795	1.312821
00:00:00.046	1.309890	1.367766	1.317216
00:00:00.046	1.327473	1.353114	1.314286
00:00:00.047	1.322344	1.359707	1.312088
00:00:00.047	1.314286	1.330403	1.306960
00:00:00.047	1.318681	1.357509	1.313553
00:00:00.048	1.319414	1.342857	1.310623
00:00:00.048	1.315018	1.334799	1.313553
00:00:00.048	1.299634	1.364103	1.309158
00:00:00.049	1.310623	1.505495	1.321612
00:00:00.049	1.310623	1.463004	1.304762
00:00:00.050	1.306227	1.436630	1.309890
00:00:00.050	1.323077	1.391941	1.308425
00:00:00.050	1.301832	1.347253	1.293773
00:00:00.051	1.300366	1.303297	1.295238
00:00:00.051	1.303297	1.268132	1.295238
00:00:00.051	1.306960	1.205861	1.295971
00:00:00.052	1.307692	1.158242	1.293773
00:00:00.052	1.304029	1.045421	1.292308
00:00:00.052	1.304029	1.083516	1.294505
00:00:00.053	1.304762	1.258608	1.298168
00:00:00.053	1.317216	1.336996	1.310623
00:00:00.053	1.326740	1.323810	1.314286
00:00:00.054	1.320879	1.346520	1.320879
00:00:00.054	1.319414	1.342125	1.322344
00:00:00.055	1.313553	1.347253	1.309890
00:00:00.055	1.316484	1.356777	1.311355
00:00:00.055	1.309158	1.344322	1.308425
00:00:00.056	1.300366	1.364103	1.304762
00:00:00.056	1.312088	1.414652	1.306960
00:00:00.056	1.312088	1.369963	1.302564
00:00:00.057	1.307692	1.309890	1.298901
00:00:00.057	1.291575	1.271062	1.289377
00:00:00.089	1.298168	1.255678	1.294505
00:00:00.090	1.309158	1.250549	1.309890
00:00:00.090	1.298168	1.367033	1.306960
00:00:00.090	1.319414	1.625641	1.332601
00:00:00.091	1.328938	1.682051	1.339194
00:00:00.091	1.310623	1.559707	1.319414
00:00:00.091	1.347253	1.339194	1.290842
00:00:00.092	1.347253	1.060806	1.297436
00:00:00.092	1.320879	0.841758	1.264469
00:00:00.092	1.298901	1.009524	1.268864
00:00:00.093	1.307692	1.254945	1.285714
00:00:00.093	1.276923	1.405128	1.300366
00:00:00.094	1.303297	1.501832	1.318681
00:00:00.094	1.316484	1.433700	1.307692
00:00:00.094	1.307692	1.178022	1.304762
00:00:00.095	1.298901	0.999267	1.287912
00:00:00.095	1.276923	0.889377	1.273993
00:00:00.095	1.300366	1.003663	1.293040
00:00:00.096	1.304762	1.192674	1.307692
00:00:00.096	1.320147	1.356044	1.323077
00:00:00.097	1.320879	1.389744	1.323077
00:00:00.097	1.317949	1.429304	1.328938
00:00:00.097	1.327473	1.422711	1.334066
00:00:00.097	1.313553	1.426374	1.332601
00:00:00.098	1.306227	1.421978	1.334066
00:00:00.098	1.322344	1.442491	1.323810
00:00:00.099	1.334066	1.386081	1.309158
00:00:00.099	1.319414	1.381685	1.304762
00:00:00.099	1.310623	1.352381	1.298168
00:00:00.101	1.302564	1.307692	1.285714
00:00:00.101	1.313553	1.298168	1.308425
00:00:00.101	1.311355	1.347985	1.297436
00:00:00.101	1.329670	1.389011	1.300366
00:00:00.101	1.326740	1.358242	1.307692
00:00:00.101	1.320147	1.340659	1.292308
00:00:00.103	1.306960	1.341392	1.291575
00:00:00.103	1.301099	1.333333	1.300366
00:00:00.103	1.291575	1.326740	1.329670
00:00:00.103	1.304029	1.313553	1.304762
00:00:00.103	1.297436	1.292308	1.305495
00:00:00.104	1.306960	1.260806	1.319414
00:00:00.104	1.306227	1.241026	1.304762
00:00:00.104	1.292308	1.257875	1.287912
00:00:00.107	1.298168	1.338462	1.319414
00:00:00.107	1.315018	1.339194	1.312821
00:00:00.107	1.290842	1.304762	1.294505
00:00:00.107	1.291575	1.298901	1.300366
00:00:00.107	1.299634	1.314286	1.298901
00:00:00.107	1.315751	1.293040	1.264469
00:00:00.107	1.353846	1.291575	1.281319
00:00:00.140	1.356777	1.327473	1.308425
00:00:00.140	1.276923	1.316484	1.331136
00:00:00.140	1.297436	1.271062	1.345788
00:00:00.140	1.279121	1.266667	1.347253
00:00:00.140	1.295971	1.287912	1.364835
00:00:00.141	1.339927	1.271795	1.375092
00:00:00.141	1.430037	1.268132	1.364103
00:00:00.141	1.347985	1.302564	1.356777
00:00:00.142	1.347253	1.315751	1.370696
00:00:00.142	1.361172	1.323810	1.380952
00:00:00.143	1.446886	1.353114	1.345055
00:00:00.143	1.334799	1.340659	1.359707
00:00:00.143	1.293773	1.333333	1.284982
00:00:00.144	1.246154	1.326740	1.134799
00:00:00.144	1.216850	1.308425	0.933333
00:00:00.144	1.208059	1.295971	1.076190
00:00:00.145	1.233700	1.294505	1.228571
00:00:00.145	1.240293	1.287179	1.183150
00:00:00.145	1.286447	1.294505	1.273993
00:00:00.146	1.283516	1.268132	1.320879
00:00:00.146	1.276923	1.286447	1.347253
00:00:00.146	1.311355	1.311355	1.354579
00:00:00.147	1.331868	1.341392	1.364835
00:00:00.147	1.340659	1.318681	1.357509
00:00:00.148	1.312821	1.297436	1.342857
00:00:00.148	1.279121	1.317949	1.328938
00:00:00.148	1.284982	1.356777	1.358974
00:00:00.149	1.400733	1.331136	1.339194
00:00:00.149	1.362637	1.297436	1.307692
00:00:00.149	1.249084	1.312088	1.323810
00:00:00.150	1.353114	1.301832	1.320879
00:00:00.150	1.325275	1.306960	1.326740
00:00:00.150	1.306227	1.289377	1.310623
00:00:00.151	1.306960	1.298901	1.331868
00:00:00.151	1.298901	1.309158	1.348718
00:00:00.151	1.272527	1.305495	1.314286
00:00:00.152	1.274725	1.306227	1.318681
00:00:00.152	1.413187	1.320879	1.318681
00:00:00.153	1.345788	1.345055	1.310623
00:00:00.153	1.332601	1.350183	1.309158
00:00:00.153	1.317949	1.310623	1.306227
00:00:00.154	1.314286	1.297436	1.253480
00:00:00.154	1.317949	1.285714	1.288645
00:00:00.154	1.315751	1.260073	1.281319
00:00:00.155	1.304029	1.239560	1.282784
00:00:00.155	1.301099	1.274725	1.312088
00:00:00.155	1.295238	1.284249	1.304762
00:00:00.156	1.309890	1.291575	1.312821
00:00:00.156	1.304762	1.306960	1.307692
00:00:00.156	1.309890	1.331136	1.323810
00:00:00.189	1.311355	1.328205	1.323810
00:00:00.189	1.304029	1.336996	1.312821
00:00:00.189	1.302564	1.328205	1.304029
00:00:00.190	1.316484	1.309890	1.312088
00:00:00.190	1.305495	1.279853	1.300366
00:00:00.190	1.305495	1.282051	1.306960
00:00:00.191	1.308425	1.305495	1.302564
00:00:00.191	1.329670	1.297436	1.273993
00:00:00.192	1.315018	1.309890	1.274725
00:00:00.192	1.296703	1.342125	1.304029
00:00:00.192	1.302564	1.345788	1.316484
00:00:00.193	1.321612	1.339927	1.304029
00:00:00.193	1.292308	1.353114	1.304029
00:00:00.193	1.287912	1.347253	1.308425
00:00:00.194	1.287179	1.292308	1.309158
00:00:00.194	1.295238	1.289377	1.312821
00:00:00.194	1.316484	1.279121	1.306960
00:00:00.195	1.311355	1.287179	1.298901
00:00:00.196	1.345788	1.342125	1.309158
00:00:00.196	1.420513	1.298168	1.312821
00:00:00.196	1.386081	1.261538	1.308425
00:00:00.196	1.351648	1.258608	1.314286
00:00:00.197	1.331136	1.269597	1.306960
00:00:00.197	1.231502	1.234432	1.305495
00:00:00.197	1.279853	1.269597	1.281319
00:00:00.200	1.273993	1.347253	1.305495
00:00:00.200	1.275458	1.393407	1.319414
00:00:00.200	1.246886	1.336264	1.323810
00:00:00.200	1.293773	1.317949	1.314286
00:00:00.200	1.317216	1.295238	1.315751
00:00:00.200	1.323810	1.271062	1.320147
00:00:00.200	1.324542	1.237363	1.322344
00:00:00.200	1.312088	1.276923	1.317216
00:00:00.203	1.326007	1.361905	1.323810
00:00:00.203	1.319414	1.358242	1.312821
00:00:00.203	1.307692	1.282784	1.304762
00:00:00.203	1.304029	1.260806	1.276923
00:00:00.203	1.283516	1.259341	1.282784
00:00:00.203	1.281319	1.276923	1.264469
00:00:00.203	1.281319	1.299634	1.202198
00:00:00.203	1.321612	1.355311	1.263004
00:00:00.203	1.317949	1.395604	1.311355
00:00:00.204	1.387546	1.363370	1.321612
00:00:00.204	1.332601	1.344322	1.323077
00:00:00.204	1.351648	1.322344	1.312821
00:00:00.205	1.313553	1.297436	1.311355
00:00:00.205	1.309158	1.267399	1.314286
00:00:00.205	1.306227	1.273260	1.308425
00:00:00.206	1.297436	1.320879	1.312821
00:00:00.206	1.305495	1.350916	1.312088
00:00:00.238	1.306960	1.369231	1.306960
00:00:00.239	1.309890	1.400733	1.314286
00:00:00.239	1.302564	1.372161	1.304762
00:00:00.239	1.306227	1.316484	1.309158
00:00:00.240	1.312821	1.257875	1.315751
00:00:00.240	1.304029	1.235165	1.313553
00:00:00.241	1.305495	1.277656	1.323077
00:00:00.241	1.317216	1.334799	1.320879
00:00:00.241	1.303297	1.361172	1.307692
00:00:00.242	1.306960	1.347253	1.315751
00:00:00.242	1.304762	1.282051	1.268132
00:00:00.242	1.303297	1.219780	1.282051
00:00:00.243	1.312821	1.147253	1.311355
00:00:00.243	1.317216	1.162637	1.311355
00:00:00.243	1.320147	1.260806	1.335531
00:00:00.244	1.311355	1.320879	1.322344
00:00:00.244	1.298901	1.334799	1.317216
00:00:00.244	1.304029	1.318681	1.305495
00:00:00.245	1.299634	1.317216	1.294505
00:00:00.245	1.308425	1.326740	1.288645
00:00:00.246	1.307692	1.298901	1.305495
00:00:00.246	1.315018	1.317949	1.312821
00:00:00.246	1.327473	1.386813	1.306960
00:00:00.247	1.323810	1.391209	1.252747
00:00:00.247	1.320879	1.350916	1.287179
00:00:00.247	1.322344	1.298901	1.245421
00:00:00.248	1.309890	1.287912	1.249817
00:00:00.248	1.299634	1.330403	1.326007
00:00:00.248	1.310623	1.409524	1.333333
00:00:00.249	1.298901	1.402930	1.309158
00:00:00.249	1.300366	1.347253	1.312821
00:00:00.249	1.308425	1.282784	1.318681
00:00:00.250	1.306960	1.219780	1.315018
00:00:00.250	1.308425	1.239560	1.317216
00:00:00.251	1.306960	1.265934	1.306960
00:00:00.251	1.303297	1.261538	1.297436
00:00:00.251	1.312088	1.254945	1.312088
00:00:00.252	1.309158	1.230037	1.304029
00:00:00.252	1.309158	1.263004	1.309890
00:00:00.252	1.323077	1.309890	1.318681
00:00:00.253	1.322344	1.323810	1.323810
00:00:00.254	1.315751	1.330403	1.320879
00:00:00.254	1.312821	1.354579	1.312821
00:00:00.254	1.302564	1.356044	1.300366
00:00:00.254	1.315018	1.356044	1.319414
00:00:00.254	1.317949	1.364103	1.308425
00:00:00.255	1.304762	1.356777	1.296703
00:00:00.255	1.316484	1.324542	1.293040
00:00:00.256	1.311355	1.260073	1.260806
00:00:00.256	1.294505	1.260806	1.288645
00:00:00.289	1.316484	1.262271	1.307692
00:00:00.289	1.312821	1.274725	1.300366
00:00:00.289	1.318681	1.282784	1.316484
00:00:00.289	1.316484	1.332601	1.309158
00:00:00.290	1.312088	1.325275	1.300366
00:00:00.290	1.311355	1.319414	1.308425
00:00:00.290	1.322344	1.268864	1.315018
00:00:00.291	1.317949	1.253480	1.314286
00:00:00.291	1.309890	1.298168	1.304029
00:00:00.291	1.306227	1.311355	1.312821
00:00:00.293	1.300366	1.349451	1.309158
00:00:00.293	1.309158	1.353846	1.304029
00:00:00.293	1.304762	1.366300	1.295238
00:00:00.293	1.316484	1.315751	1.304029
00:00:00.295	1.317216	1.274725	1.311355
00:00:00.295	1.320147	1.248352	1.313553
00:00:00.295	1.309158	1.230037	1.309890
00:00:00.295	1.301832	1.240293	1.306227
00:00:00.296	1.284982	1.361905	1.304762
00:00:00.296	1.306960	1.403663	1.303297
00:00:00.296	1.315018	1.398535	1.308425
00:00:00.296	1.305495	1.357509	1.304029
00:00:00.296	1.318681	1.348718	1.304762
00:00:00.296	1.310623	1.309158	1.304029
00:00:00.297	1.312821	1.267399	1.302564
00:00:00.300	1.310623	1.232234	1.298168
00:00:00.300	1.314286	1.261538	1.287179
00:00:00.300	1.314286	1.310623	1.308425
00:00:00.300	1.301099	1.312821	1.291575
00:00:00.300	1.301099	1.293773	1.300366
00:00:00.300	1.301832	1.274725	1.293773
00:00:00.300	1.311355	1.281319	1.302564
00:00:00.300	1.309158	1.276190	1.309890
00:00:00.300	1.313553	1.226374	1.307692
00:00:00.300	1.310623	1.237363	1.303297
00:00:00.301	1.311355	1.375092	1.307692
00:00:00.301	1.314286	1.372894	1.309158
00:00:00.301	1.314286	1.330403	1.297436
00:00:00.302	1.307692	1.300366	1.293040
00:00:00.302	1.314286	1.287179	1.308425
00:00:00.302	1.315018	1.263004	1.306227
00:00:00.303	1.317949	1.255678	1.302564
00:00:00.303	1.323077	1.347253	1.305495
00:00:00.303	1.311355	1.399267	1.307692
00:00:00.304	1.317216	1.410989	1.307692
00:00:00.304	1.308425	1.376557	1.309890
00:00:00.305	1.308425	1.327473	1.308425
00:00:00.305	1.314286	1.276923	1.311355
00:00:00.306	1.311355	1.206593	1.305495
00:00:00.306	1.300366	1.182418	1.295971
00:00:00.338	1.298168	1.250549	1.289377
00:00:00.338	1.306960	1.349451	1.298168
00:00:00.339	1.314286	1.380220	1.308425
00:00:00.339	1.305495	1.371429	1.298901
00:00:00.339	1.311355	1.352381	1.305495
00:00:00.340	1.318681	1.313553	1.311355
00:00:00.340	1.315018	1.244689	1.306960
00:00:00.340	1.318681	1.267399	1.309158
00:00:00.341	1.312088	1.285714	1.318681
00:00:00.341	1.307692	1.276923	1.304762
00:00:00.341	1.319414	1.303297	1.308425
00:00:00.342	1.322344	1.305495	1.306227
00:00:00.342	1.307692	1.293773	1.298901
00:00:00.342	1.297436	1.293773	1.299634
00:00:00.343	1.304762	1.330403	1.304029
00:00:00.343	1.300366	1.328938	1.302564
00:00:00.344	1.312088	1.347253	1.303297
00:00:00.344	1.306227	1.316484	1.297436
00:00:00.344	1.312088	1.315018	1.300366
00:00:00.345	1.315751	1.329670	1.311355
00:00:00.345	1.314286	1.302564	1.309890
00:00:00.345	1.313553	1.257143	1.302564
00:00:00.346	1.319414	1.271795	1.314286
00:00:00.346	1.315751	1.293773	1.300366
00:00:00.346	1.307692	1.308425	1.304029
00:00:00.347	1.307692	1.312821	1.301832
00:00:00.347	1.312088	1.332601	1.297436
00:00:00.347	1.316484	1.350916	1.302564
00:00:00.348	1.317949	1.337729	1.313553
00:00:00.348	1.309158	1.323077	1.312088
00:00:00.349	1.307692	1.297436	1.312821
00:00:00.349	1.311355	1.306227	1.305495
00:00:00.349	1.308425	1.286447	1.309158
00:00:00.350	1.310623	1.299634	1.301832
00:00:00.350	1.311355	1.323810	1.312821
00:00:00.350	1.302564	1.316484	1.304029
00:00:00.351	1.311355	1.310623	1.312088
00:00:00.351	1.314286	1.315018	1.306227
00:00:00.351	1.306227	1.322344	1.300366
00:00:00.352	1.301832	1.309158	1.306960
00:00:00.352	1.317949	1.316484	1.308425
00:00:00.352	1.308425	1.310623	1.310623
00:00:00.354	1.296703	1.279853	1.304029
00:00:00.354	1.304762	1.276923	1.298168
00:00:00.354	1.309158	1.275458	1.300366
00:00:00.354	1.295238	1.294505	1.300366
00:00:00.354	1.306960	1.301099	1.295238
00:00:00.359	1.308425	1.318681	1.306227
00:00:00.359	1.302564	1.316484	1.300366
00:00:00.359	1.314286	1.338462	1.309158
00:00:00.387	1.306960	1.326007	1.306227
00:00:00.389	1.310623	1.315751	1.309158
00:00:00.389	1.301832	1.305495	1.307692
00:00:00.389	1.312088	1.283516	1.306227
00:00:00.391	1.314286	1.270330	1.305495
00:00:00.391	1.309158	1.274725	1.299634
00:00:00.391	1.318681	1.298168	1.305495
00:00:00.391	1.318681	1.286447	1.298901
00:00:00.391	1.309158	1.279853	1.302564
00:00:00.391	1.316484	1.290110	1.301832
00:00:00.392	1.317216	1.317949	1.305495
00:00:00.392	1.312088	1.331136	1.302564
00:00:00.392	1.306960	1.330403	1.303297
00:00:00.392	1.310623	1.319414	1.302564
00:00:00.393	1.312088	1.296703	1.303297
00:00:00.393	1.303297	1.268864	1.287912
00:00:00.393	1.313553	1.315751	1.301832
00:00:00.397	1.308425	1.319414	1.298168
00:00:00.397	1.311355	1.326007	1.306227
00:00:00.397	1.306227	1.321612	1.304762
00:00:00.397	1.314286	1.312821	1.293773
00:00:00.397	1.314286	1.319414	1.306960
00:00:00.397	1.317216	1.317949	1.305495
00:00:00.397	1.311355	1.312088	1.303297
00:00:00.397	1.318681	1.320879	1.309158
00:00:00.397	1.320879	1.327473	1.311355
00:00:00.397	1.306960	1.309158	1.306227
00:00:00.397	1.316484	1.308425	1.306227
00:00:00.398	1.310623	1.301099	1.300366
00:00:00.398	1.303297	1.305495	1.298901
00:00:00.398	1.302564	1.302564	1.293773
00:00:00.399	1.308425	1.310623	1.305495
00:00:00.399	1.304762	1.311355	1.307692
00:00:00.399	1.301832	1.295971	1.298901
00:00:00.400	1.310623	1.281319	1.304029
00:00:00.400	1.306960	1.301832	1.304029
00:00:00.400	1.308425	1.328205	1.305495
00:00:00.401	1.315751	1.342125	1.306960
00:00:00.401	1.309890	1.320879	1.302564
00:00:00.401	1.310623	1.294505	1.304762
00:00:00.402	1.316484	1.285714	1.306227
00:00:00.402	1.312088	1.267399	1.300366
00:00:00.403	1.312821	1.257143	1.304029
00:00:00.403	1.320147	1.297436	1.307692
00:00:00.403	1.317216	1.300366	1.311355
00:00:00.404	1.312088	1.313553	1.306960
00:00:00.404	1.300366	1.327473	1.296703
00:00:00.404	1.306227	1.329670	1.295238
00:00:00.405	1.316484	1.324542	1.306227
00:00:00.405	1.310623	1.326007	1.303297
00:00:00.437	1.300366	1.334799	1.293773
00:00:00.438	1.306960	1.321612	1.300366
00:00:00.438	1.308425	1.312821	1.304762
00:00:00.438	1.316484	1.304029	1.309890
00:00:00.439	1.308425	1.285714	1.306227
00:00:00.439	1.313553	1.289377	1.306227
00:00:00.439	1.306227	1.290842	1.298168
00:00:00.440	1.315018	1.303297	1.304762
00:00:00.440	1.309158	1.303297	1.296703
00:00:00.440	1.303297	1.295971	1.300366
00:00:00.441	1.311355	1.315018	1.306960
00:00:00.442	1.315018	1.309158	1.305495
00:00:00.442	1.314286	1.321612	1.305495
00:00:00.442	1.309158	1.315751	1.300366
00:00:00.442	1.303297	1.320879	1.309890
00:00:00.443	1.308425	1.331136	1.306960
00:00:00.443	1.309158	1.372894	1.310623
00:00:00.443	1.307692	1.378755	1.308425
00:00:00.444	1.315751	1.345788	1.306960
00:00:00.444	1.319414	1.280586	1.309890
00:00:00.444	1.317216	1.246886	1.312088
00:00:00.445	1.315751	1.202198	1.309158
00:00:00.445	1.310623	1.194139	1.310623
00:00:00.445	1.301099	1.230037	1.297436
00:00:00.446	1.307692	1.320147	1.291575
00:00:00.446	1.316484	1.339927	1.309158
00:00:00.447	1.315018	1.331868	1.296703
00:00:00.447	1.315018	1.327473	1.303297
00:00:00.447	1.311355	1.328205	1.302564
00:00:00.448	1.308425	1.328205	1.295971
00:00:00.448	1.309890	1.330403	1.302564
00:00:00.448	1.310623	1.314286	1.299634
00:00:00.450	1.311355	1.304029	1.301832
00:00:00.450	1.311355	1.301099	1.304029
00:00:00.450	1.309890	1.300366	1.300366
00:00:00.450	1.309158	1.314286	1.309890
00:00:00.450	1.309890	1.323077	1.306227
00:00:00.450	1.310623	1.317216	1.304029
00:00:00.453	1.313553	1.316484	1.310623
00:00:00.453	1.308425	1.298901	1.306227
00:00:00.453	1.310623	1.304762	1.309158
00:00:00.453	1.323077	1.329670	1.312088
00:00:00.453	1.309890	1.336996	1.297436
00:00:00.454	1.317949	1.339927	1.309890
00:00:00.454	1.306227	1.323810	1.308425
00:00:00.454	1.312821	1.298901	1.301832
00:00:00.455	1.311355	1.270330	1.304762
00:00:00.455	1.312821	1.266667	1.308425
00:00:00.455	1.308425	1.288645	1.309890
00:00:00.455	1.309158	1.316484	1.301832
00:00:00.488	1.313553	1.312821	1.312821
00:00:00.488	1.316484	1.302564	1.309890
00:00:00.488	1.307692	1.298168	1.312088
00:00:00.488	1.308425	1.288645	1.303297
00:00:00.488	1.312088	1.298168	1.305495
00:00:00.492	1.300366	1.298901	1.304029
00:00:00.492	1.316484	1.312088	1.306960
00:00:00.492	1.306227	1.298168	1.304762
00:00:00.492	1.315018	1.301832	1.306960
00:00:00.492	1.307692	1.297436	1.295971
00:00:00.492	1.321612	1.312821	1.307692
00:00:00.492	1.318681	1.315751	1.307692
00:00:00.492	1.306227	1.312088	1.300366
00:00:00.492	1.306960	1.306960	1.296703
00:00:00.492	1.311355	1.312821	1.305495
00:00:00.492	1.306960	1.309890	1.304762
00:00:00.493	1.310623	1.324542	1.309158
00:00:00.493	1.317949	1.323077	1.306960
00:00:00.494	1.301832	1.304762	1.293773
00:00:00.494	1.317216	1.326740	1.305495
00:00:00.494	1.309890	1.323810	1.299634
00:00:00.494	1.306227	1.312821	1.305495
00:00:00.495	1.314286	1.308425	1.307692
00:00:00.495	1.312821	1.308425	1.309890
00:00:00.496	1.314286	1.306227	1.306960
00:00:00.496	1.312821	1.294505	1.298168
00:00:00.496	1.308425	1.294505	1.293773
00:00:00.497	1.314286	1.302564	1.300366
00:00:00.497	1.296703	1.293773	1.300366
00:00:00.497	1.314286	1.300366	1.305495
00:00:00.498	1.315018	1.312088	1.310623
00:00:00.498	1.314286	1.323077	1.305495
00:00:00.498	1.305495	1.320879	1.306227
00:00:00.499	1.310623	1.306227	1.306227
00:00:00.499	1.308425	1.295971	1.306960
00:00:00.499	1.312088	1.317216	1.311355
00:00:00.500	1.310623	1.333333	1.306227
00:00:00.500	1.307692	1.367766	1.302564
00:00:00.501	1.314286	1.367033	1.302564
00:00:00.501	1.309158	1.308425	1.307692
00:00:00.501	1.311355	1.231502	1.303297
00:00:00.502	1.310623	1.217582	1.298168
00:00:00.502	1.304762	1.239560	1.300366
00:00:00.502	1.316484	1.246886	1.307692
00:00:00.503	1.307692	1.254945	1.297436
00:00:00.503	1.311355	1.318681	1.300366
00:00:00.503	1.315018	1.315751	1.306227
00:00:00.504	1.311355	1.317949	1.300366
00:00:00.504	1.310623	1.316484	1.309890
00:00:00.504	1.307692	1.316484	1.301099
00:00:00.537	1.314286	1.323077	1.306227
00:00:00.537	1.312088	1.329670	1.306960
00:00:00.537	1.316484	1.326007	1.306227
00:00:00.538	1.312088	1.331136	1.311355
00:00:00.538	1.312088	1.317949	1.309158
00:00:00.538	1.315751	1.303297	1.306227
00:00:00.539	1.309890	1.304762	1.295971
00:00:00.539	1.310623	1.302564	1.298901
00:00:00.540	1.309158	1.315018	1.308425
00:00:00.540	1.302564	1.303297	1.300366
00:00:00.540	1.323077	1.331136	1.309158
00:00:00.541	1.316484	1.309890	1.295238
00:00:00.541	1.302564	1.305495	1.300366
00:00:00.541	1.312821	1.316484	1.306227
00:00:00.542	1.314286	1.313553	1.306960
00:00:00.542	1.309158	1.317949	1.308425
00:00:00.542	1.309158	1.312821	1.305495
00:00:00.543	1.310623	1.302564	1.302564
00:00:00.543	1.304762	1.302564	1.305495
00:00:00.543	1.309158	1.298901	1.300366
00:00:00.544	1.312821	1.304029	1.306227
00:00:00.544	1.309890	1.294505	1.304762
00:00:00.545	1.304029	1.293040	1.304762
00:00:00.545	1.317216	1.307692	1.315018
00:00:00.545	1.314286	1.301832	1.300366
00:00:00.546	1.317216	1.302564	1.307692
00:00:00.546	1.317216	1.315018	1.309158
00:00:00.546	1.315751	1.311355	1.306227
00:00:00.547	1.312821	1.311355	1.312821
00:00:00.547	1.313553	1.305495	1.312088
00:00:00.547	1.312821	1.321612	1.309890
00:00:00.549	1.317216	1.330403	1.312821
00:00:00.549	1.300366	1.325275	1.310623
00:00:00.549	1.307692	1.312821	1.300366
00:00:00.549	1.296703	1.298901	1.305495
00:00:00.549	1.309158	1.300366	1.306960
00:00:00.551	1.313553	1.299634	1.306227
00:00:00.551	1.318681	1.303297	1.309890
00:00:00.551	1.311355	1.283516	1.304029
00:00:00.551	1.312088	1.298168	1.308425
00:00:00.551	1.320879	1.291575	1.306960
00:00:00.551	1.316484	1.279121	1.299634
00:00:00.555	1.313553	1.279853	1.303297
00:00:00.555	1.319414	1.285714	1.298168
00:00:00.555	1.312088	1.295238	1.294505
00:00:00.555	1.318681	1.321612	1.309158
00:00:00.555	1.316484	1.321612	1.309890
00:00:00.555	1.312821	1.323077	1.309890
00:00:00.555	1.312088	1.325275	1.313553
00:00:00.555	1.308425	1.326007	1.306227
00:00:00.588	1.301099	1.310623	1.300366
00:00:00.588	1.315751	1.320879	1.309158
00:00:00.588	1.306227	1.323810	1.305495
00:00:00.588	1.310623	1.323810	1.306227
00:00:00.588	1.304029	1.313553	1.305495
00:00:00.588	1.312088	1.307692	1.308425
00:00:00.589	1.312088	1.298901	1.298901
00:00:00.589	1.304762	1.303297	1.300366
00:00:00.589	1.313553	1.300366	1.304762
00:00:00.590	1.309158	1.294505	1.306227
00:00:00.590	1.313553	1.304029	1.297436
00:00:00.590	1.317216	1.323077	1.304762
00:00:00.591	1.310623	1.307692	1.306227
00:00:00.591	1.312821	1.282784	1.302564
00:00:00.591	1.314286	1.294505	1.312088
00:00:00.592	1.311355	1.291575	1.309890
00:00:00.592	1.312088	1.304029	1.309890
00:00:00.592	1.306960	1.309890	1.312821
00:00:00.593	1.312088	1.312821	1.306960
00:00:00.593	1.313553	1.319414	1.306960
00:00:00.594	1.301832	1.306227	1.302564
00:00:00.594	1.312088	1.312088	1.295238
00:00:00.594	1.313553	1.315751	1.306227
00:00:00.595	1.315018	1.318681	1.300366
00:00:00.595	1.314286	1.314286	1.300366
00:00:00.595	1.309158	1.289377	1.293773
00:00:00.596	1.315751	1.300366	1.306227
00:00:00.596	1.315018	1.296703	1.305495
00:00:00.596	1.317949	1.295238	1.304762
00:00:00.597	1.306227	1.304762	1.306960
00:00:00.597	1.305495	1.323077	1.289377
00:00:00.597	1.315018	1.336264	1.306960
00:00:00.599	1.313553	1.328205	1.304762
00:00:00.599	1.312088	1.309890	1.305495
00:00:00.599	1.309158	1.284982	1.305495
00:00:00.599	1.312088	1.268864	1.306960
00:00:00.599	1.315018	1.272527	1.295971
00:00:00.600	1.316484	1.287179	1.300366
00:00:00.600	1.313553	1.299634	1.305495
00:00:00.600	1.311355	1.306960	1.309890
00:00:00.601	1.315751	1.315751	1.309158
00:00:00.601	1.317949	1.308425	1.307692
00:00:00.601	1.304029	1.322344	1.302564
00:00:00.602	1.310623	1.325275	1.296703
00:00:00.602	1.323810	1.331136	1.309890
00:00:00.602	1.308425	1.313553	1.300366
00:00:00.603	1.312088	1.319414	1.300366
00:00:00.603	1.306227	1.300366	1.292308
00:00:00.604	1.312088	1.315751	1.308425
00:00:00.604	1.304029	1.304762	1.298168
00:00:00.636	1.299634	1.293040	1.295238
00:00:00.636	1.311355	1.318681	1.307692
00:00:00.637	1.305495	1.306960	1.301832
00:00:00.637	1.309890	1.292308	1.309890
00:00:00.638	1.313553	1.307692	1.312821
00:00:00.638	1.309890	1.304762	1.304762
00:00:00.638	1.312821	1.280586	1.304029
00:00:00.639	1.306227	1.286447	1.295971
00:00:00.639	1.317949	1.308425	1.306227
00:00:00.639	1.317949	1.309158	1.307692
00:00:00.640	1.323810	1.315018	1.306960
00:00:00.640	1.300366	1.296703	1.295238
00:00:00.640	1.317216	1.308425	1.300366
00:00:00.641	1.311355	1.313553	1.293773
00:00:00.641	1.308425	1.344322	1.300366
00:00:00.641	1.312088	1.350916	1.304762
00:00:00.642	1.295238	1.317949	1.299634
00:00:00.642	1.312088	1.296703	1.311355
00:00:00.643	1.313553	1.284982	1.304762
00:00:00.643	1.304762	1.295238	1.297436
00:00:00.643	1.314286	1.321612	1.307692
00:00:00.649	1.314286	1.307692	1.303297
00:00:00.649	1.305495	1.317949	1.302564
00:00:00.649	1.312821	1.307692	1.310623
00:00:00.649	1.302564	1.276190	1.301832
00:00:00.649	1.313553	1.256410	1.306960
00:00:00.649	1.312088	1.230037	1.304762
00:00:00.649	1.312088	1.255678	1.300366
00:00:00.649	1.322344	1.306227	1.309158
00:00:00.649	1.317949	1.320879	1.298901
00:00:00.649	1.320147	1.334799	1.310623
00:00:00.649	1.305495	1.322344	1.306227
00:00:00.649	1.299634	1.310623	1.298168
00:00:00.649	1.309890	1.316484	1.306227
00:00:00.649	1.309158	1.320147	1.304029
00:00:00.649	1.303297	1.320147	1.302564
00:00:00.649	1.306960	1.309890	1.300366
00:00:00.649	1.313553	1.311355	1.307692
00:00:00.653	1.305495	1.311355	1.300366
00:00:00.653	1.304762	1.297436	1.295238
00:00:00.653	1.304029	1.305495	1.297436
00:00:00.653	1.312088	1.312088	1.300366
00:00:00.653	1.316484	1.315018	1.308425
00:00:00.653	1.299634	1.302564	1.292308
00:00:00.653	1.312088	1.292308	1.289377
00:00:00.653	1.312088	1.293773	1.298901
00:00:00.653	1.309890	1.306960	1.306227
00:00:00.653	1.312821	1.317216	1.306227
00:00:00.653	1.311355	1.312821	1.304029
00:00:00.654	1.307692	1.321612	1.312821
00:00:00.686	1.317216	1.321612	1.309158
00:00:00.686	1.306960	1.317949	1.287179
00:00:00.687	1.315018	1.343590	1.312821
00:00:00.687	1.310623	1.358974	1.315018
00:00:00.687	1.312821	1.363370	1.311355
00:00:00.688	1.313553	1.340659	1.306960
00:00:00.688	1.312821	1.306227	1.305495
00:00:00.688	1.314286	1.282051	1.304029
00:00:00.689	1.312088	1.240293	1.300366
00:00:00.689	1.309158	1.201465	1.285714
00:00:00.689	1.309890	1.200733	1.293773
00:00:00.690	1.309158	1.235165	1.291575
00:00:00.690	1.319414	1.283516	1.308425
00:00:00.690	1.312088	1.299634	1.305495
00:00:00.691	1.312088	1.318681	1.302564
00:00:00.691	1.314286	1.341392	1.309890
00:00:00.692	1.303297	1.334799	1.309158
00:00:00.692	1.303297	1.318681	1.294505
00:00:00.692	1.308425	1.333333	1.313553
00:00:00.693	1.314286	1.323810	1.310623
00:00:00.693	1.316484	1.320879	1.306227
00:00:00.693	1.301832	1.316484	1.304762
00:00:00.694	1.315018	1.323077	1.305495
00:00:00.694	1.313553	1.316484	1.307692
00:00:00.694	1.318681	1.320147	1.312821
00:00:00.695	1.311355	1.317949	1.306227
00:00:00.695	1.314286	1.320147	1.303297
00:00:00.695	1.312088	1.305495	1.295238
00:00:00.696	1.318681	1.309890	1.309158
