timestamp	ch1	ch2	ch3
00:00:00.000	1.317949	1.326007	1.327473
00:00:00.000	1.309890	1.317949	1.322344
00:00:00.000	1.302564	1.309890	1.309158
00:00:00.001	1.298901	1.321612	1.323810
00:00:00.001	1.301832	1.314286	1.318681
00:00:00.002	1.327473	1.328938	1.334066
00:00:00.002	1.315018	1.321612	1.320147
00:00:00.002	1.311355	1.309890	1.300366
00:00:00.035	1.320879	1.316484	1.300366
00:00:00.035	1.320879	1.313553	1.308425
00:00:00.035	1.320879	1.307692	1.306960
00:00:00.036	1.323810	1.323077	1.304029
00:00:00.036	1.319414	1.317949	1.302564
00:00:00.036	1.313553	1.313553	1.309890
00:00:00.037	1.302564	1.315018	1.347253
00:00:00.037	1.302564	1.323810	1.354579
00:00:00.037	1.300366	1.324542	1.350916
00:00:00.038	1.295971	1.321612	1.328205
00:00:00.038	1.289377	1.318681	1.304029
00:00:00.038	1.290110	1.310623	1.282051
00:00:00.039	1.310623	1.317216	1.285714
00:00:00.039	1.301832	1.316484	1.276923
00:00:00.039	1.326007	1.317949	1.315751
00:00:00.040	1.343590	1.326740	1.331136
00:00:00.040	1.345788	1.319414	1.336264
00:00:00.041	1.357509	1.329670	1.393407
00:00:00.041	1.320879	1.323810	1.383883
00:00:00.041	1.294505	1.322344	1.323810
00:00:00.042	1.275458	1.318681	1.279121
00:00:00.042	1.275458	1.323810	1.275458
00:00:00.042	1.295238	1.307692	1.293040
00:00:00.043	1.299634	1.302564	1.298901
00:00:00.043	1.345055	1.321612	1.341392
00:00:00.043	1.344322	1.323810	1.325275
00:00:00.044	1.329670	1.324542	1.331868
00:00:00.044	1.319414	1.320879	1.336996
00:00:00.044	1.309158	1.312821	1.315018
00:00:00.045	1.313553	1.309890	1.339927
00:00:00.045	1.331136	1.318681	1.345055
00:00:00.046	1.300366	1.323810	1.310623
00:00:00.046	1.287912	1.320879	1.289377
00:00:00.046	1.280586	1.318681	1.293040
00:00:00.047	1.293773	1.317216	1.320147
00:00:00.047	1.288645	1.317216	1.356777
00:00:00.047	1.297436	1.322344	1.341392
00:00:00.048	1.323810	1.319414	1.322344
00:00:00.048	1.359707	1.325275	1.340659
00:00:00.048	1.393407	1.323077	1.358974
00:00:00.049	1.408059	1.321612	1.352381
00:00:00.049	1.444689	1.326007	1.315751
00:00:00.050	1.358242	1.316484	1.303297
00:00:00.050	1.139194	1.320147	1.276923
00:00:00.050	1.164103	1.317216	1.272527
00:00:00.051	1.296703	1.309890	1.292308
00:00:00.051	1.330403	1.320879	1.313553
00:00:00.051	1.326740	1.317216	1.330403
00:00:00.054	1.329670	1.325275	1.345055
00:00:00.054	1.310623	1.314286	1.321612
00:00:00.085	1.287912	1.316484	1.320147
00:00:00.085	1.298168	1.320879	1.320879
00:00:00.085	1.300366	1.310623	1.301832
00:00:00.085	1.315751	1.320879	1.309890
00:00:00.086	1.320879	1.319414	1.315018
00:00:00.086	1.305495	1.316484	1.307692
00:00:00.086	1.297436	1.309158	1.308425
00:00:00.088	1.315751	1.321612	1.320879
00:00:00.088	1.301832	1.314286	1.321612
00:00:00.088	1.325275	1.293040	1.323810
00:00:00.088	1.356777	1.260073	1.317949
00:00:00.088	1.368498	1.276190	1.321612
00:00:00.091	1.339194	1.288645	1.307692
00:00:00.091	1.327473	1.323077	1.331136
00:00:00.091	1.287179	1.346520	1.330403
00:00:00.091	1.233700	1.347985	1.302564
00:00:00.091	1.254945	1.405128	1.311355
00:00:00.091	1.273993	1.406593	1.312088
00:00:00.091	1.313553	1.372161	1.315018
00:00:00.091	1.318681	1.317949	1.320879
00:00:00.091	1.330403	1.303297	1.331868
00:00:00.092	1.333333	1.304029	1.328938
00:00:00.092	1.339927	1.306227	1.323810
00:00:00.092	1.314286	1.303297	1.309890
00:00:00.093	1.275458	1.297436	1.308425
00:00:00.093	1.306227	1.306227	1.309158
00:00:00.094	1.327473	1.320879	1.336264
00:00:00.094	1.320879	1.311355	1.322344
00:00:00.094	1.333333	1.320147	1.320147
00:00:00.095	1.329670	1.324542	1.328938
00:00:00.095	1.324542	1.322344	1.327473
00:00:00.095	1.320147	1.322344	1.323810
00:00:00.096	1.312088	1.311355	1.314286
00:00:00.096	1.294505	1.312088	1.320147
00:00:00.096	1.326007	1.323810	1.326740
00:00:00.097	1.326007	1.318681	1.323810
00:00:00.097	1.317949	1.314286	1.322344
00:00:00.097	1.306227	1.315018	1.321612
00:00:00.098	1.279121	1.297436	1.314286
00:00:00.098	1.292308	1.308425	1.319414
00:00:00.099	1.320879	1.329670	1.334799
00:00:00.099	1.317216	1.320879	1.326007
00:00:00.099	1.323077	1.327473	1.329670
00:00:00.100	1.299634	1.320879	1.316484
00:00:00.100	1.280586	1.311355	1.309158
00:00:00.100	1.288645	1.315018	1.305495
00:00:00.101	1.299634	1.314286	1.315751
00:00:00.101	1.309158	1.309158	1.305495
00:00:00.101	1.320147	1.315018	1.293040
00:00:00.102	1.345788	1.326740	1.336264
00:00:00.134	1.340659	1.315018	1.320879
00:00:00.134	1.334066	1.325275	1.326007
00:00:00.135	1.314286	1.322344	1.323810
00:00:00.135	1.291575	1.315751	1.308425
00:00:00.135	1.283516	1.313553	1.298901
00:00:00.136	1.300366	1.311355	1.308425
00:00:00.136	1.319414	1.323810	1.328205
00:00:00.136	1.317949	1.322344	1.331136
00:00:00.137	1.295238	1.313553	1.310623
00:00:00.137	1.301832	1.317949	1.300366
00:00:00.138	1.344322	1.326740	1.337729
00:00:00.138	1.329670	1.323810	1.366300
00:00:00.138	1.312088	1.325275	1.361172
00:00:00.139	1.302564	1.313553	1.327473
00:00:00.140	1.331136	1.325275	1.315018
00:00:00.140	1.333333	1.320879	1.323810
00:00:00.140	1.334066	1.323810	1.310623
00:00:00.140	1.306960	1.319414	1.313553
00:00:00.140	1.300366	1.318681	1.323077
00:00:00.141	1.295971	1.327473	1.337729
00:00:00.141	1.273260	1.319414	1.323810
00:00:00.141	1.290110	1.323077	1.320147
00:00:00.142	1.279121	1.304029	1.290110
00:00:00.142	1.305495	1.315018	1.295238
00:00:00.143	1.334066	1.310623	1.281319
00:00:00.143	1.379487	1.320147	1.315018
00:00:00.143	1.359707	1.326740	1.323810
00:00:00.144	1.328205	1.323810	1.315751
00:00:00.144	1.289377	1.313553	1.302564
00:00:00.144	1.278388	1.318681	1.331136
00:00:00.145	1.290842	1.326007	1.345055
00:00:00.145	1.275458	1.319414	1.330403
00:00:00.145	1.300366	1.325275	1.369231
00:00:00.146	1.317949	1.324542	1.347253
00:00:00.146	1.304762	1.316484	1.309890
00:00:00.146	1.301832	1.310623	1.296703
00:00:00.147	1.337729	1.320879	1.309158
00:00:00.147	1.326740	1.319414	1.292308
00:00:00.151	1.332601	1.317949	1.292308
00:00:00.151	1.339927	1.312088	1.292308
00:00:00.151	1.375092	1.317949	1.304029
00:00:00.151	1.351648	1.324542	1.322344
00:00:00.151	1.317949	1.323810	1.315018
00:00:00.151	1.282784	1.318681	1.323810
00:00:00.151	1.285714	1.322344	1.332601
00:00:00.151	1.311355	1.314286	1.339927
00:00:00.151	1.320147	1.326007	1.356044
00:00:00.152	1.295971	1.320147	1.314286
00:00:00.152	1.292308	1.317949	1.294505
00:00:00.152	1.286447	1.314286	1.316484
00:00:00.184	1.286447	1.316484	1.334799
00:00:00.184	1.277656	1.315751	1.309890
00:00:00.184	1.296703	1.312821	1.312088
00:00:00.185	1.331868	1.317216	1.339927
00:00:00.185	1.322344	1.325275	1.328938
00:00:00.185	1.320147	1.328938	1.339927
00:00:00.188	1.309158	1.316484	1.322344
00:00:00.188	1.313553	1.314286	1.298901
00:00:00.188	1.319414	1.321612	1.290842
00:00:00.188	1.323810	1.323077	1.304029
00:00:00.188	1.328205	1.324542	1.329670
00:00:00.188	1.361172	1.320147	1.332601
00:00:00.188	1.331868	1.323077	1.328938
00:00:00.188	1.309158	1.320879	1.309158
00:00:00.190	1.300366	1.309158	1.291575
00:00:00.190	1.329670	1.317216	1.310623
00:00:00.190	1.412454	1.328205	1.334066
00:00:00.190	1.394139	1.312821	1.325275
00:00:00.190	1.219780	1.323077	1.320147
00:00:00.191	1.192674	1.317949	1.306227
00:00:00.191	1.260806	1.314286	1.320147
00:00:00.192	1.317949	1.323077	1.323810
00:00:00.192	1.328938	1.326740	1.326740
00:00:00.192	1.328938	1.317949	1.328205
00:00:00.192	1.334066	1.327473	1.329670
00:00:00.193	1.307692	1.323810	1.317949
00:00:00.193	1.271062	1.316484	1.298168
00:00:00.193	1.287912	1.316484	1.293773
00:00:00.194	1.304029	1.313553	1.293773
00:00:00.194	1.298168	1.320879	1.313553
00:00:00.194	1.299634	1.323810	1.315018
00:00:00.195	1.325275	1.320879	1.336996
00:00:00.195	1.339927	1.317216	1.357509
00:00:00.196	1.330403	1.322344	1.332601
00:00:00.196	1.324542	1.314286	1.330403
00:00:00.196	1.339927	1.327473	1.336996
00:00:00.197	1.345788	1.326007	1.331868
00:00:00.197	1.357509	1.323077	1.320879
00:00:00.197	1.323077	1.314286	1.312821
00:00:00.198	1.300366	1.315751	1.310623
00:00:00.198	1.293040	1.320147	1.315751
00:00:00.198	1.300366	1.321612	1.319414
00:00:00.199	1.292308	1.320879	1.306227
00:00:00.199	1.304762	1.321612	1.306227
00:00:00.199	1.314286	1.317216	1.318681
00:00:00.200	1.306960	1.307692	1.318681
00:00:00.200	1.313553	1.320147	1.323810
00:00:00.201	1.315018	1.322344	1.336264
00:00:00.201	1.302564	1.315018	1.306227
00:00:00.201	1.290842	1.312088	1.293773
00:00:00.233	1.293773	1.317949	1.284982
00:00:00.234	1.308425	1.321612	1.304029
00:00:00.234	1.310623	1.318681	1.298168
00:00:00.235	1.299634	1.316484	1.263004
00:00:00.235	1.293773	1.309890	1.276923
00:00:00.235	1.303297	1.315751	1.366300
00:00:00.236	1.337729	1.324542	1.383883
00:00:00.236	1.374359	1.327473	1.386813
00:00:00.236	1.393407	1.322344	1.343590
00:00:00.237	1.347253	1.309890	1.295971
00:00:00.237	1.356044	1.320879	1.353114
00:00:00.237	1.334799	1.318681	1.366300
00:00:00.238	1.274725	1.317216	1.315018
00:00:00.238	1.274725	1.325275	1.323077
00:00:00.238	1.265201	1.320879	1.309890
00:00:00.239	1.297436	1.326007	1.308425
00:00:00.239	1.293773	1.321612	1.311355
00:00:00.240	1.301832	1.320147	1.312821
00:00:00.240	1.302564	1.315018	1.311355
00:00:00.240	1.276923	1.311355	1.306227
00:00:00.241	1.286447	1.322344	1.300366
00:00:00.241	1.284249	1.309890	1.295971
00:00:00.241	1.289377	1.319414	1.298168
00:00:00.242	1.298168	1.323077	1.306227
00:00:00.242	1.341392	1.320147	1.316484
00:00:00.242	1.369231	1.312821	1.336264
00:00:00.244	1.386813	1.312088	1.335531
00:00:00.244	1.368498	1.325275	1.352381
00:00:00.245	1.363370	1.327473	1.326740
00:00:00.245	1.331868	1.323810	1.321612
00:00:00.245	1.303297	1.319414	1.314286
00:00:00.247	1.262271	1.318681	1.316484
00:00:00.247	1.280586	1.320879	1.315018
00:00:00.247	1.290110	1.318681	1.323077
00:00:00.247	1.276923	1.318681	1.318681
00:00:00.247	1.288645	1.318681	1.315018
00:00:00.247	1.304762	1.317949	1.306227
00:00:00.247	1.311355	1.314286	1.303297
00:00:00.247	1.325275	1.324542	1.323810
00:00:00.247	1.334799	1.328205	1.328205
00:00:00.250	1.334066	1.323810	1.323810
00:00:00.250	1.323810	1.315018	1.315751
00:00:00.250	1.298168	1.311355	1.312088
00:00:00.250	1.290110	1.313553	1.309890
00:00:00.250	1.295971	1.325275	1.314286
00:00:00.250	1.314286	1.328205	1.330403
00:00:00.250	1.299634	1.313553	1.305495
00:00:00.250	1.299634	1.312821	1.323077
00:00:00.251	1.327473	1.313553	1.328938
00:00:00.251	1.325275	1.325275	1.323810
00:00:00.283	1.310623	1.319414	1.315018
00:00:00.284	1.321612	1.326007	1.323077
00:00:00.284	1.315751	1.323810	1.323810
00:00:00.284	1.316484	1.318681	1.323810
00:00:00.285	1.310623	1.319414	1.323077
00:00:00.285	1.315018	1.324542	1.320879
00:00:00.285	1.323810	1.322344	1.318681
00:00:00.286	1.309890	1.321612	1.322344
00:00:00.286	1.313553	1.308425	1.302564
00:00:00.286	1.323810	1.319414	1.323810
00:00:00.287	1.323810	1.325275	1.320147
00:00:00.287	1.325275	1.320879	1.315018
00:00:00.288	1.332601	1.326007	1.321612
00:00:00.288	1.315018	1.312088	1.323077
00:00:00.288	1.320147	1.326740	1.326007
00:00:00.289	1.298168	1.320147	1.327473
00:00:00.289	1.306960	1.323810	1.327473
00:00:00.289	1.311355	1.318681	1.316484
00:00:00.290	1.340659	1.321612	1.320879
00:00:00.290	1.366300	1.312088	1.319414
00:00:00.290	1.356777	1.315751	1.317949
00:00:00.291	1.184615	1.311355	1.314286
00:00:00.291	1.248352	1.323077	1.322344
00:00:00.291	1.328938	1.318681	1.320879
00:00:00.292	1.338462	1.318681	1.311355
00:00:00.292	1.344322	1.321612	1.315751
00:00:00.293	1.348718	1.305495	1.300366
00:00:00.293	1.347253	1.324542	1.306960
00:00:00.293	1.288645	1.323810	1.317216
00:00:00.294	1.227839	1.323077	1.315018
00:00:00.294	1.244689	1.310623	1.304029
00:00:00.294	1.317949	1.317216	1.307692
00:00:00.295	1.341392	1.322344	1.344322
00:00:00.295	1.323077	1.323077	1.350916
00:00:00.295	1.330403	1.323810	1.354579
00:00:00.296	1.349451	1.324542	1.358242
00:00:00.296	1.341392	1.325275	1.329670
00:00:00.296	1.324542	1.318681	1.306960
00:00:00.297	1.317949	1.326007	1.294505
00:00:00.297	1.297436	1.326740	1.299634
00:00:00.298	1.288645	1.323810	1.300366
00:00:00.298	1.264469	1.316484	1.323077
00:00:00.298	1.267399	1.319414	1.336264
00:00:00.299	1.341392	1.320879	1.323077
00:00:00.299	1.372894	1.317949	1.300366
00:00:00.299	1.352381	1.317949	1.342857
00:00:00.300	1.338462	1.318681	1.349451
00:00:00.300	1.330403	1.323077	1.330403
00:00:00.300	1.306227	1.326007	1.310623
00:00:00.301	1.273993	1.317949	1.279853
00:00:00.333	1.251282	1.313553	1.279121
00:00:00.333	1.252747	1.323810	1.271795
00:00:00.334	1.273260	1.318681	1.271062
00:00:00.334	1.276923	1.312088	1.290110
00:00:00.334	1.353846	1.320147	1.347253
00:00:00.335	1.345788	1.325275	1.383883
00:00:00.335	1.336264	1.317949	1.400733
00:00:00.335	1.336996	1.312821	1.384615
00:00:00.336	1.372161	1.320147	1.388278
00:00:00.336	1.381685	1.325275	1.361172
00:00:00.337	1.365568	1.322344	1.331136
00:00:00.337	1.344322	1.309890	1.298168
00:00:00.337	1.341392	1.318681	1.293040
00:00:00.338	1.338462	1.327473	1.308425
00:00:00.338	1.286447	1.326007	1.303297
00:00:00.339	1.259341	1.320879	1.306960
00:00:00.339	1.257875	1.314286	1.304762
00:00:00.339	1.320879	1.309158	1.304762
00:00:00.339	1.346520	1.317216	1.311355
00:00:00.341	1.302564	1.308425	1.303297
00:00:00.341	1.316484	1.327473	1.326007
00:00:00.341	1.306960	1.320147	1.317216
00:00:00.341	1.284982	1.322344	1.321612
00:00:00.341	1.276923	1.317216	1.310623
00:00:00.342	1.271795	1.314286	1.318681
00:00:00.342	1.300366	1.328205	1.323810
00:00:00.342	1.296703	1.313553	1.306960
00:00:00.343	1.307692	1.320147	1.320147
00:00:00.343	1.334799	1.323810	1.323810
00:00:00.343	1.339927	1.327473	1.323810
00:00:00.344	1.323810	1.320147	1.321612
00:00:00.344	1.309158	1.318681	1.307692
00:00:00.344	1.304762	1.325275	1.319414
00:00:00.347	1.299634	1.315751	1.309158
00:00:00.347	1.316484	1.324542	1.326007
00:00:00.347	1.302564	1.314286	1.321612
00:00:00.347	1.315751	1.321612	1.326740
00:00:00.347	1.301099	1.313553	1.314286
00:00:00.347	1.312088	1.320879	1.315751
00:00:00.347	1.323077	1.320879	1.317216
00:00:00.347	1.314286	1.309890	1.305495
00:00:00.349	1.314286	1.323810	1.326740
00:00:00.349	1.304029	1.315018	1.314286
00:00:00.349	1.320879	1.323810	1.326007
00:00:00.349	1.306960	1.320879	1.320147
00:00:00.349	1.315751	1.336264	1.323810
00:00:00.349	1.315751	1.334799	1.327473
00:00:00.350	1.300366	1.320147	1.321612
00:00:00.350	1.304029	1.320147	1.323077
00:00:00.351	1.314286	1.312088	1.310623
00:00:00.383	1.314286	1.303297	1.314286
00:00:00.383	1.301099	1.288645	1.308425
00:00:00.383	1.328938	1.303297	1.334799
00:00:00.384	1.316484	1.304029	1.316484
00:00:00.384	1.306227	1.309890	1.315751
00:00:00.384	1.307692	1.322344	1.318681
00:00:00.385	1.294505	1.314286	1.321612
00:00:00.385	1.304762	1.326007	1.331136
00:00:00.386	1.306960	1.324542	1.315751
00:00:00.386	1.302564	1.334066	1.326007
00:00:00.386	1.296703	1.325275	1.320879
00:00:00.387	1.303297	1.318681	1.320879
00:00:00.387	1.305495	1.324542	1.320879
00:00:00.387	1.323810	1.328205	1.325275
00:00:00.388	1.355311	1.325275	1.313553
00:00:00.388	1.358242	1.318681	1.292308
00:00:00.388	1.323810	1.312821	1.308425
00:00:00.389	1.306227	1.318681	1.312088
00:00:00.389	1.300366	1.314286	1.314286
00:00:00.390	1.312088	1.324542	1.328205
00:00:00.390	1.301832	1.320147	1.321612
00:00:00.390	1.298901	1.314286	1.320147
00:00:00.391	1.315751	1.317949	1.321612
00:00:00.391	1.309158	1.310623	1.309158
00:00:00.391	1.354579	1.321612	1.322344
00:00:00.392	1.386081	1.315018	1.313553
00:00:00.392	1.356777	1.323810	1.339194
00:00:00.392	1.221978	1.318681	1.346520
00:00:00.393	1.268864	1.315018	1.339927
00:00:00.393	1.297436	1.327473	1.328938
00:00:00.393	1.285714	1.321612	1.301832
00:00:00.394	1.297436	1.315751	1.295238
00:00:00.394	1.305495	1.316484	1.289377
00:00:00.395	1.297436	1.313553	1.271795
00:00:00.395	1.295238	1.311355	1.295238
00:00:00.395	1.331868	1.327473	1.358242
00:00:00.396	1.347985	1.331868	1.375824
00:00:00.396	1.322344	1.312821	1.320147
00:00:00.396	1.326740	1.312821	1.303297
00:00:00.397	1.308425	1.317949	1.331136
00:00:00.397	1.329670	1.326740	1.300366
00:00:00.397	1.326740	1.318681	1.270330
00:00:00.398	1.351648	1.328938	1.284982
00:00:00.398	1.352381	1.323077	1.320147
00:00:00.398	1.335531	1.313553	1.309890
00:00:00.399	1.317949	1.310623	1.330403
00:00:00.399	1.292308	1.321612	1.347253
00:00:00.400	1.221245	1.323077	1.327473
00:00:00.401	1.238828	1.326007	1.334799
00:00:00.401	1.298901	1.310623	1.344322
00:00:00.432	1.303297	1.316484	1.329670
00:00:00.433	1.320147	1.325275	1.321612
00:00:00.433	1.361172	1.312088	1.303297
00:00:00.434	1.391209	1.316484	1.328205
00:00:00.434	1.357509	1.317949	1.336996
00:00:00.434	1.309890	1.314286	1.360440
00:00:00.435	1.312821	1.326740	1.368498
00:00:00.435	1.359707	1.322344	1.330403
00:00:00.435	1.325275	1.320879	1.290110
00:00:00.436	1.320147	1.315751	1.281319
00:00:00.436	1.312088	1.315751	1.307692
00:00:00.436	1.320147	1.319414	1.334066
00:00:00.438	1.279853	1.320147	1.323810
00:00:00.438	1.243223	1.323810	1.301832
00:00:00.438	1.242491	1.318681	1.301832
00:00:00.441	1.313553	1.323810	1.315018
00:00:00.441	1.314286	1.319414	1.312821
00:00:00.441	1.312821	1.321612	1.319414
00:00:00.441	1.319414	1.315018	1.312088
00:00:00.441	1.323810	1.311355	1.315018
00:00:00.441	1.333333	1.312821	1.304762
00:00:00.441	1.328205	1.319414	1.313553
00:00:00.441	1.307692	1.320147	1.321612
00:00:00.441	1.270330	1.323810	1.320147
00:00:00.441	1.269597	1.320879	1.318681
00:00:00.441	1.295238	1.317216	1.315018
00:00:00.445	1.313553	1.311355	1.312088
00:00:00.445	1.322344	1.319414	1.311355
00:00:00.445	1.326740	1.323077	1.317949
00:00:00.445	1.336996	1.323077	1.327473
00:00:00.445	1.328205	1.318681	1.323810
00:00:00.445	1.319414	1.317949	1.328938
00:00:00.445	1.312088	1.320879	1.323810
00:00:00.445	1.309158	1.320147	1.318681
00:00:00.445	1.313553	1.320879	1.320147
00:00:00.445	1.313553	1.315018	1.320147
00:00:00.445	1.306960	1.320879	1.323810
00:00:00.446	1.320147	1.319414	1.319414
00:00:00.446	1.326007	1.315751	1.317949
00:00:00.446	1.325275	1.320879	1.319414
00:00:00.447	1.318681	1.323810	1.319414
00:00:00.447	1.330403	1.325275	1.323810
00:00:00.447	1.338462	1.320147	1.315751
00:00:00.448	1.296703	1.323810	1.317216
00:00:00.448	1.273260	1.320147	1.318681
00:00:00.449	1.282784	1.317216	1.307692
00:00:00.449	1.330403	1.327473	1.327473
00:00:00.449	1.330403	1.323810	1.323077
00:00:00.450	1.335531	1.326740	1.334799
00:00:00.450	1.309158	1.314286	1.322344
00:00:00.482	1.301832	1.321612	1.327473
00:00:00.483	1.306227	1.325275	1.334799
00:00:00.483	1.312821	1.328938	1.322344
00:00:00.483	1.311355	1.319414	1.315751
00:00:00.484	1.331136	1.313553	1.322344
00:00:00.485	1.309890	1.317949	1.320879
00:00:00.485	1.301832	1.313553	1.298168
00:00:00.485	1.320147	1.325275	1.315751
00:00:00.485	1.321612	1.316484	1.306960
00:00:00.485	1.309158	1.319414	1.305495
00:00:00.486	1.315018	1.318681	1.315018
00:00:00.486	1.317216	1.326007	1.332601
00:00:00.487	1.317949	1.323077	1.323810
00:00:00.487	1.313553	1.315018	1.325275
00:00:00.487	1.310623	1.315018	1.320147
00:00:00.488	1.317949	1.323810	1.341392
00:00:00.488	1.305495	1.323077	1.330403
00:00:00.488	1.314286	1.323077	1.332601
00:00:00.489	1.323077	1.324542	1.300366
00:00:00.489	1.309890	1.311355	1.273260
00:00:00.489	1.310623	1.318681	1.312088
00:00:00.490	1.302564	1.321612	1.329670
00:00:00.490	1.313553	1.321612	1.332601
00:00:00.490	1.312088	1.315751	1.312821
00:00:00.491	1.293040	1.312088	1.282784
00:00:00.491	1.326007	1.320879	1.315751
00:00:00.492	1.350183	1.330403	1.361172
00:00:00.492	1.356044	1.316484	1.362637
00:00:00.492	1.337729	1.326740	1.301832
00:00:00.493	1.297436	1.323810	1.310623
00:00:00.493	1.271062	1.315018	1.298901
00:00:00.493	1.270330	1.323810	1.287912
00:00:00.494	1.248352	1.306960	1.259341
00:00:00.494	1.271062	1.320879	1.276923
00:00:00.494	1.299634	1.308425	1.306227
00:00:00.495	1.309890	1.310623	1.320879
00:00:00.495	1.320147	1.309890	1.312088
00:00:00.495	1.391209	1.321612	1.433700
00:00:00.496	1.448352	1.333333	1.449817
00:00:00.496	1.387546	1.325275	1.405128
00:00:00.497	1.315018	1.316484	1.320147
00:00:00.497	1.303297	1.321612	1.297436
00:00:00.497	1.313553	1.317216	1.292308
00:00:00.498	1.348718	1.323810	1.300366
00:00:00.498	1.298901	1.316484	1.295971
00:00:00.498	1.270330	1.315018	1.300366
00:00:00.499	1.248352	1.317949	1.308425
00:00:00.499	1.238828	1.313553	1.293773
00:00:00.499	1.263736	1.309890	1.294505
00:00:00.500	1.272527	1.312821	1.295971
00:00:00.532	1.350183	1.309158	1.295971
00:00:00.532	1.415385	1.310623	1.319414
00:00:00.533	1.334799	1.326740	1.350916
00:00:00.533	1.281319	1.321612	1.349451
00:00:00.533	1.283516	1.319414	1.315018
00:00:00.538	1.249084	1.320147	1.310623
00:00:00.538	1.326740	1.313553	1.306960
00:00:00.538	1.344322	1.326740	1.344322
00:00:00.538	1.304029	1.312821	1.342857
00:00:00.538	1.311355	1.321612	1.331868
00:00:00.538	1.315018	1.323077	1.310623
00:00:00.538	1.308425	1.318681	1.312088
00:00:00.538	1.315751	1.322344	1.314286
00:00:00.538	1.312088	1.319414	1.308425
00:00:00.538	1.309158	1.318681	1.316484
00:00:00.538	1.315018	1.312821	1.309890
00:00:00.538	1.319414	1.322344	1.319414
00:00:00.538	1.310623	1.314286	1.308425
00:00:00.538	1.312088	1.324542	1.321612
00:00:00.541	1.300366	1.312088	1.312821
00:00:00.541	1.315018	1.323810	1.323810
00:00:00.541	1.307692	1.317216	1.314286
00:00:00.541	1.315018	1.323810	1.326740
00:00:00.541	1.323810	1.324542	1.320879
00:00:00.541	1.322344	1.323077	1.318681
00:00:00.541	1.317949	1.326007	1.322344
00:00:00.541	1.309890	1.317216	1.320879
00:00:00.542	1.308425	1.321612	1.321612
00:00:00.542	1.301832	1.312821	1.312088
00:00:00.542	1.317216	1.323077	1.327473
00:00:00.543	1.298901	1.316484	1.320879
00:00:00.543	1.294505	1.312821	1.315018
00:00:00.543	1.317216	1.326007	1.326007
00:00:00.544	1.308425	1.308425	1.315751
00:00:00.544	1.323810	1.326740	1.323810
00:00:00.544	1.319414	1.321612	1.317216
00:00:00.545	1.321612	1.323077	1.321612
00:00:00.545	1.319414	1.314286	1.316484
00:00:00.546	1.315751	1.322344	1.323810
00:00:00.546	1.312088	1.326007	1.323077
00:00:00.546	1.304029	1.322344	1.319414
00:00:00.547	1.304029	1.323810	1.320147
00:00:00.547	1.281319	1.309158	1.310623
00:00:00.547	1.290842	1.318681	1.316484
00:00:00.548	1.345055	1.337729	1.345788
00:00:00.548	1.329670	1.326007	1.337729
00:00:00.548	1.332601	1.323810	1.330403
00:00:00.549	1.315018	1.317216	1.318681
00:00:00.549	1.326740	1.312088	1.312821
00:00:00.550	1.326007	1.316484	1.315751
00:00:00.582	1.315751	1.321612	1.305495
00:00:00.582	1.312088	1.317216	1.307692
00:00:00.582	1.301099	1.317949	1.309158
00:00:00.583	1.290110	1.309158	1.306227
00:00:00.583	1.294505	1.322344	1.326007
00:00:00.584	1.309890	1.325275	1.328938
00:00:00.584	1.305495	1.324542	1.319414
00:00:00.584	1.282784	1.321612	1.315751
00:00:00.585	1.279121	1.321612	1.323810
00:00:00.585	1.305495	1.315018	1.326007
00:00:00.585	1.322344	1.324542	1.329670
00:00:00.586	1.331868	1.320879	1.306227
00:00:00.586	1.349451	1.304029	1.327473
00:00:00.586	1.354579	1.312088	1.323077
00:00:00.587	1.343590	1.320147	1.315751
00:00:00.587	1.343590	1.326740	1.321612
00:00:00.587	1.339927	1.321612	1.292308
00:00:00.588	1.298901	1.312821	1.285714
00:00:00.588	1.273993	1.315018	1.334799
00:00:00.589	1.303297	1.318681	1.346520
00:00:00.589	1.336996	1.327473	1.345055
00:00:00.589	1.334799	1.313553	1.320879
00:00:00.590	1.312821	1.318681	1.304029
00:00:00.590	1.298901	1.316484	1.287179
00:00:00.590	1.273993	1.316484	1.281319
00:00:00.591	1.250549	1.317949	1.328938
00:00:00.591	1.235897	1.323077	1.323810
00:00:00.591	1.282051	1.318681	1.306227
00:00:00.592	1.372894	1.325275	1.381685
00:00:00.592	1.401465	1.329670	1.402198
00:00:00.592	1.349451	1.323810	1.317949
00:00:00.593	1.328205	1.313553	1.263736
00:00:00.593	1.328205	1.309158	1.310623
00:00:00.594	1.341392	1.328938	1.353846
00:00:00.594	1.313553	1.317949	1.346520
00:00:00.594	1.314286	1.328205	1.359707
00:00:00.595	1.302564	1.322344	1.323077
00:00:00.595	1.269597	1.306960	1.276923
00:00:00.595	1.307692	1.313553	1.290110
00:00:00.596	1.342857	1.318681	1.299634
00:00:00.596	1.362637	1.324542	1.312821
00:00:00.596	1.380220	1.320147	1.316484
00:00:00.598	1.347253	1.319414	1.306227
00:00:00.598	1.284249	1.321612	1.326007
00:00:00.598	1.220513	1.323810	1.358974
00:00:00.598	1.196337	1.327473	1.358974
00:00:00.598	1.284249	1.323810	1.327473
00:00:00.599	1.301832	1.309890	1.298168
00:00:00.600	1.320147	1.314286	1.315018
00:00:00.600	1.321612	1.324542	1.317949
00:00:00.633	1.314286	1.323077	1.310623
00:00:00.633	1.312088	1.322344	1.309890
00:00:00.633	1.327473	1.312821	1.303297
00:00:00.633	1.342857	1.325275	1.315751
00:00:00.633	1.335531	1.317216	1.309158
00:00:00.633	1.309158	1.313553	1.305495
00:00:00.634	1.299634	1.312088	1.316484
00:00:00.634	1.291575	1.315018	1.320879
00:00:00.634	1.320879	1.321612	1.323810
00:00:00.638	1.333333	1.312088	1.312088
00:00:00.638	1.380952	1.316484	1.306960
00:00:00.638	1.392674	1.320147	1.317949
00:00:00.638	1.377289	1.315751	1.312088
00:00:00.638	1.237363	1.323810	1.315751
00:00:00.638	1.211722	1.317216	1.312088
00:00:00.638	1.242491	1.326007	1.320147
00:00:00.638	1.298901	1.320147	1.315751
00:00:00.638	1.317216	1.317949	1.314286
00:00:00.638	1.318681	1.319414	1.320879
00:00:00.638	1.318681	1.320147	1.323077
00:00:00.640	1.317216	1.318681	1.317949
00:00:00.640	1.320147	1.316484	1.310623
00:00:00.640	1.310623	1.310623	1.314286
00:00:00.640	1.314286	1.318681	1.323077
00:00:00.640	1.322344	1.326007	1.323810
00:00:00.640	1.322344	1.326740	1.318681
00:00:00.642	1.317949	1.318681	1.317216
00:00:00.642	1.311355	1.307692	1.315018
00:00:00.642	1.312088	1.318681	1.323810
00:00:00.642	1.320879	1.322344	1.326740
00:00:00.642	1.319414	1.321612	1.326740
00:00:00.643	1.314286	1.313553	1.313553
00:00:00.643	1.306227	1.312821	1.318681
00:00:00.643	1.314286	1.321612	1.325275
00:00:00.644	1.306227	1.315751	1.310623
00:00:00.644	1.312821	1.313553	1.313553
00:00:00.644	1.312088	1.320879	1.312088
00:00:00.645	1.326740	1.319414	1.315018
00:00:00.645	1.329670	1.320147	1.334066
00:00:00.645	1.312088	1.315751	1.322344
00:00:00.646	1.304029	1.315751	1.317949
00:00:00.646	1.300366	1.323810	1.309890
00:00:00.647	1.298901	1.323810	1.318681
00:00:00.647	1.309158	1.322344	1.320147
00:00:00.647	1.310623	1.312821	1.308425
00:00:00.648	1.333333	1.311355	1.323810
00:00:00.648	1.331868	1.315018	1.336264
00:00:00.648	1.332601	1.327473	1.338462
00:00:00.649	1.320879	1.314286	1.323810
00:00:00.649	1.309158	1.304029	1.312821
00:00:00.681	1.304029	1.314286	1.300366
00:00:00.682	1.280586	1.321612	1.300366
00:00:00.682	1.267399	1.326740	1.309158
00:00:00.682	1.267399	1.311355	1.292308
00:00:00.683	1.293040	1.314286	1.298168
00:00:00.683	1.318681	1.320879	1.287179
00:00:00.683	1.361172	1.307692	1.304029
00:00:00.684	1.364835	1.316484	1.353846
00:00:00.684	1.352381	1.310623	1.361905
00:00:00.684	1.281319	1.327473	1.329670
00:00:00.685	1.280586	1.328205	1.321612
00:00:00.685	1.333333	1.324542	1.321612
00:00:00.686	1.331868	1.327473	1.331868
00:00:00.686	1.298168	1.316484	1.290110
00:00:00.686	1.317949	1.318681	1.289377
00:00:00.687	1.326007	1.320879	1.293773
00:00:00.687	1.312088	1.320879	1.333333
00:00:00.687	1.336264	1.306227	1.343590
00:00:00.688	1.342857	1.315751	1.333333
00:00:00.688	1.344322	1.319414	1.323810
00:00:00.688	1.352381	1.324542	1.361905
00:00:00.689	1.315018	1.317949	1.375092
00:00:00.689	1.297436	1.326740	1.308425
00:00:00.689	1.277656	1.317949	1.290110
00:00:00.690	1.279853	1.309158	1.293040
00:00:00.690	1.306960	1.319414	1.298168
00:00:00.691	1.311355	1.324542	1.338462
00:00:00.691	1.306227	1.331136	1.405861
00:00:00.691	1.297436	1.315751	1.347253
00:00:00.692	1.306227	1.306960	1.285714
00:00:00.692	1.331868	1.331868	1.328938
00:00:00.692	1.296703	1.318681	1.322344
00:00:00.693	1.298168	1.323810	1.317216
00:00:00.694	1.296703	1.316484	1.317216
00:00:00.694	1.306960	1.314286	1.307692
00:00:00.694	1.345788	1.324542	1.312088
00:00:00.694	1.386813	1.312821	1.304029
00:00:00.694	1.306227	1.306227	1.298901
00:00:00.695	1.295238	1.319414	1.314286
00:00:00.695	1.341392	1.323077	1.323810
00:00:00.696	1.320147	1.315751	1.313553
00:00:00.696	1.301832	1.323077	1.304762
00:00:00.696	1.231502	1.315751	1.295238
00:00:00.698	1.219048	1.308425	1.301832
00:00:00.698	1.247619	1.318681	1.315751
00:00:00.698	1.308425	1.315751	1.317216
00:00:00.698	1.338462	1.321612	1.320147
00:00:00.698	1.329670	1.314286	1.336996
00:00:00.698	1.332601	1.318681	1.354579
00:00:00.702	1.320147	1.315018	1.332601
00:00:00.733	1.317949	1.318681	1.317216
00:00:00.733	1.323077	1.323810	1.317949
00:00:00.733	1.333333	1.323810	1.314286
00:00:00.733	1.335531	1.315751	1.306960
00:00:00.733	1.329670	1.317949	1.313553
00:00:00.733	1.328205	1.319414	1.320879
00:00:00.733	1.335531	1.320147	1.317949
00:00:00.733	1.317949	1.311355	1.309158
00:00:00.734	1.323810	1.328205	1.322344
00:00:00.734	1.305495	1.323810	1.320147
00:00:00.735	1.295238	1.315751	1.316484
00:00:00.735	1.308425	1.324542	1.321612
00:00:00.735	1.306227	1.316484	1.312821
00:00:00.736	1.317949	1.323077	1.323810
00:00:00.736	1.320879	1.323077	1.323077
00:00:00.736	1.309158	1.320147	1.311355
00:00:00.737	1.309890	1.317216	1.312088
00:00:00.737	1.307692	1.306960	1.312821
00:00:00.737	1.313553	1.307692	1.309890
00:00:00.738	1.327473	1.326740	1.331136
00:00:00.738	1.307692	1.315751	1.323810
00:00:00.738	1.315018	1.316484	1.323077
00:00:00.739	1.316484	1.323077	1.326740
00:00:00.739	1.303297	1.320147	1.313553
00:00:00.740	1.298168	1.316484	1.320147
00:00:00.740	1.308425	1.321612	1.306227
00:00:00.740	1.306227	1.314286	1.303297
00:00:00.741	1.313553	1.319414	1.321612
00:00:00.741	1.315018	1.326740	1.320879
00:00:00.741	1.301099	1.316484	1.295238
00:00:00.742	1.312088	1.323077	1.317949
00:00:00.742	1.308425	1.315751	1.329670
00:00:00.742	1.317949	1.320879	1.339194
00:00:00.743	1.313553	1.308425	1.341392
00:00:00.743	1.309158	1.316484	1.326007
00:00:00.744	1.342125	1.322344	1.331136
00:00:00.744	1.323810	1.322344	1.326740
00:00:00.744	1.308425	1.320147	1.295971
00:00:00.745	1.296703	1.309890	1.308425
00:00:00.745	1.313553	1.317949	1.326007
00:00:00.746	1.315751	1.324542	1.340659
00:00:00.746	1.294505	1.317949	1.326740
00:00:00.746	1.298901	1.308425	1.312821
00:00:00.746	1.315018	1.312088	1.319414
00:00:00.747	1.339927	1.324542	1.320879
00:00:00.747	1.315018	1.316484	1.314286
00:00:00.747	1.320879	1.323810	1.323077
00:00:00.748	1.312821	1.326007	1.320879
00:00:00.748	1.300366	1.326007	1.312821
00:00:00.749	1.265201	1.320879	1.296703
00:00:00.781	1.257875	1.324542	1.298901
00:00:00.781	1.283516	1.327473	1.307692
00:00:00.781	1.300366	1.307692	1.304762
00:00:00.782	1.320879	1.320879	1.313553
00:00:00.782	1.342125	1.325275	1.340659
00:00:00.783	1.364835	1.321612	1.328938
00:00:00.783	1.370696	1.317949	1.322344
00:00:00.783	1.349451	1.316484	1.351648
00:00:00.784	1.306960	1.311355	1.339927
00:00:00.784	1.286447	1.323077	1.320147
00:00:00.784	1.314286	1.323810	1.309158
00:00:00.785	1.323077	1.325275	1.286447
00:00:00.785	1.294505	1.313553	1.284249
00:00:00.785	1.309158	1.320879	1.271795
00:00:00.786	1.322344	1.311355	1.282051
00:00:00.786	1.341392	1.321612	1.377289
00:00:00.786	1.354579	1.328205	1.451282
00:00:00.787	1.339927	1.328205	1.412454
00:00:00.787	1.301832	1.324542	1.323077
00:00:00.788	1.260806	1.307692	1.269597
00:00:00.788	1.250549	1.308425	1.215385
00:00:00.788	1.315018	1.320879	1.268132
00:00:00.789	1.300366	1.307692	1.302564
00:00:00.789	1.323810	1.325275	1.341392
00:00:00.789	1.372894	1.326740	1.364103
00:00:00.790	1.350916	1.318681	1.343590
00:00:00.790	1.344322	1.326740	1.373626
00:00:00.790	1.334066	1.324542	1.380220
00:00:00.792	1.310623	1.312821	1.331136
00:00:00.792	1.290110	1.314286	1.295238
00:00:00.792	1.294505	1.325275	1.300366
00:00:00.792	1.298168	1.322344	1.308425
00:00:00.792	1.299634	1.317949	1.305495
00:00:00.794	1.302564	1.320147	1.305495
00:00:00.794	1.304029	1.318681	1.295238
00:00:00.794	1.300366	1.311355	1.306227
00:00:00.794	1.304762	1.321612	1.312821
00:00:00.794	1.314286	1.324542	1.327473
00:00:00.794	1.317216	1.325275	1.318681
00:00:00.798	1.312821	1.321612	1.315751
00:00:00.798	1.309158	1.305495	1.312821
00:00:00.798	1.312821	1.320147	1.318681
00:00:00.798	1.291575	1.318681	1.305495
00:00:00.798	1.290842	1.324542	1.298168
00:00:00.798	1.316484	1.323810	1.303297
00:00:00.798	1.334066	1.315751	1.315751
00:00:00.798	1.329670	1.315751	1.319414
00:00:00.798	1.348718	1.319414	1.321612
00:00:00.798	1.355311	1.324542	1.337729
00:00:00.798	1.339194	1.326740	1.339194
00:00:00.830	1.304029	1.324542	1.334799
00:00:00.831	1.317216	1.321612	1.326740
00:00:00.831	1.348718	1.315018	1.326007
00:00:00.832	1.334799	1.309890	1.328938
00:00:00.832	1.230037	1.324542	1.307692
00:00:00.832	1.233700	1.322344	1.308425
00:00:00.833	1.262271	1.323077	1.312821
00:00:00.833	1.306227	1.321612	1.315751
00:00:00.833	1.309158	1.308425	1.309158
00:00:00.834	1.301832	1.312821	1.315751
00:00:00.834	1.311355	1.323077	1.320879
00:00:00.834	1.328205	1.328205	1.326740
00:00:00.835	1.327473	1.320879	1.326007
00:00:00.835	1.331136	1.318681	1.315751
00:00:00.835	1.334066	1.323810	1.323810
00:00:00.836	1.317949	1.314286	1.310623
00:00:00.836	1.323810	1.319414	1.325275
00:00:00.837	1.323077	1.321612	1.319414
00:00:00.837	1.318681	1.315751	1.318681
00:00:00.837	1.326740	1.326740	1.323810
00:00:00.838	1.302564	1.310623	1.311355
00:00:00.838	1.305495	1.310623	1.317949
00:00:00.838	1.303297	1.312088	1.320879
00:00:00.839	1.307692	1.323077	1.321612
00:00:00.839	1.314286	1.326007	1.323810
00:00:00.839	1.316484	1.325275	1.326007
00:00:00.840	1.304029	1.321612	1.317216
00:00:00.840	1.293773	1.316484	1.304029
00:00:00.840	1.296703	1.313553	1.314286
00:00:00.841	1.316484	1.321612	1.331868
00:00:00.841	1.335531	1.323810	1.328938
00:00:00.842	1.348718	1.320879	1.323077
00:00:00.842	1.349451	1.315751	1.320879
00:00:00.842	1.323077	1.320879	1.320147
00:00:00.843	1.305495	1.320147	1.317216
00:00:00.843	1.308425	1.317949	1.319414
00:00:00.843	1.315018	1.317216	1.320147
00:00:00.844	1.318681	1.318681	1.319414
00:00:00.844	1.306960	1.320147	1.314286
00:00:00.844	1.311355	1.317216	1.323810
00:00:00.845	1.323077	1.318681	1.326740
00:00:00.845	1.326740	1.326007	1.328205
00:00:00.846	1.312821	1.323810	1.323077
00:00:00.846	1.308425	1.320147	1.317216
00:00:00.846	1.309890	1.323077	1.315018
00:00:00.847	1.282784	1.313553	1.304029
00:00:00.847	1.316484	1.325275	1.328938
00:00:00.847	1.307692	1.306960	1.317949
00:00:00.848	1.327473	1.332601	1.347253
00:00:00.848	1.300366	1.325275	1.318681
00:00:00.880	1.309158	1.321612	1.318681
00:00:00.881	1.291575	1.319414	1.314286
00:00:00.881	1.305495	1.320879	1.315018
00:00:00.882	1.308425	1.322344	1.298168
00:00:00.882	1.305495	1.312088	1.297436
00:00:00.882	1.320147	1.324542	1.308425
00:00:00.882	1.330403	1.328938	1.321612
00:00:00.883	1.338462	1.323077	1.363370
00:00:00.883	1.329670	1.323077	1.366300
00:00:00.883	1.315018	1.312821	1.329670
00:00:00.884	1.296703	1.315751	1.304029
00:00:00.884	1.281319	1.315018	1.281319
00:00:00.885	1.291575	1.325275	1.291575
00:00:00.885	1.295971	1.320879	1.300366
00:00:00.885	1.315018	1.306960	1.295238
00:00:00.886	1.340659	1.317949	1.329670
00:00:00.886	1.357509	1.320147	1.358974
00:00:00.886	1.349451	1.320147	1.336996
00:00:00.888	1.293040	1.317216	1.318681
00:00:00.888	1.301832	1.337729	1.386813
00:00:00.888	1.310623	1.323810	1.350916
00:00:00.888	1.312088	1.320879	1.326740
00:00:00.888	1.316484	1.320879	1.308425
00:00:00.888	1.329670	1.313553	1.303297
00:00:00.890	1.386813	1.307692	1.293773
00:00:00.890	1.374359	1.323810	1.314286
00:00:00.890	1.323077	1.325275	1.310623
00:00:00.890	1.286447	1.324542	1.310623
00:00:00.890	1.256410	1.315751	1.304029
00:00:00.894	1.275458	1.313553	1.306227
00:00:00.894	1.289377	1.325275	1.315751
00:00:00.894	1.270330	1.313553	1.308425
00:00:00.894	1.289377	1.321612	1.309890
00:00:00.894	1.271795	1.309890	1.287912
00:00:00.894	1.276190	1.315751	1.271795
00:00:00.894	1.285714	1.309158	1.288645
00:00:00.894	1.334799	1.320147	1.319414
00:00:00.894	1.353846	1.320879	1.354579
00:00:00.894	1.378022	1.323810	1.322344
00:00:00.894	1.366300	1.312088	1.368498
00:00:00.895	1.343590	1.310623	1.391209
00:00:00.895	1.350916	1.330403	1.402930
