timestamp	ch1	ch2	ch3
00:00:00.000	1.318681	1.298168	1.308425
00:00:00.000	1.304029	1.282051	1.295971
00:00:00.001	1.323077	1.306960	1.314286
00:00:00.001	1.322344	1.300366	1.305495
00:00:00.001	1.316484	1.331136	1.311355
00:00:00.002	1.328205	1.353846	1.312821
00:00:00.002	1.309890	1.350916	1.306960
00:00:00.003	1.315751	1.352381	1.315018
00:00:00.003	1.311355	1.328205	1.302564
00:00:00.003	1.305495	1.248352	1.297436
00:00:00.004	1.296703	1.238828	1.307692
00:00:00.004	1.305495	1.285714	1.302564
00:00:00.005	1.305495	1.265201	1.310623
00:00:00.005	1.306227	1.252015	1.309890
00:00:00.005	1.301832	1.279853	1.300366
00:00:00.005	1.292308	1.317949	1.307692
00:00:00.006	1.308425	1.332601	1.302564
00:00:00.006	1.304762	1.342125	1.304029
00:00:00.007	1.314286	1.326740	1.319414
00:00:00.007	1.309158	1.318681	1.312088
00:00:00.007	1.316484	1.306227	1.309158
00:00:00.008	1.319414	1.304762	1.306960
00:00:00.008	1.316484	1.293773	1.310623
00:00:00.008	1.313553	1.282051	1.311355
00:00:00.009	1.333333	1.311355	1.315018
00:00:00.009	1.312088	1.293773	1.298168
00:00:00.009	1.309158	1.308425	1.299634
00:00:00.010	1.309158	1.328938	1.315018
00:00:00.010	1.302564	1.320147	1.309158
00:00:00.010	1.288645	1.315751	1.305495
00:00:00.011	1.298901	1.320879	1.296703
00:00:00.011	1.298168	1.314286	1.292308
00:00:00.012	1.312088	1.315751	1.300366
00:00:00.012	1.312088	1.306960	1.302564
00:00:00.012	1.312088	1.304029	1.306227
00:00:00.013	1.315018	1.301832	1.306227
00:00:00.013	1.311355	1.291575	1.298168
00:00:00.013	1.321612	1.301099	1.305495
00:00:00.014	1.303297	1.284982	1.303297
00:00:00.014	1.311355	1.296703	1.312821
00:00:00.014	1.317216	1.297436	1.310623
00:00:00.015	1.311355	1.303297	1.317216
00:00:00.015	1.300366	1.310623	1.306227
00:00:00.015	1.306227	1.317216	1.303297
00:00:00.016	1.296703	1.309890	1.295238
00:00:00.016	1.302564	1.319414	1.293040
00:00:00.017	1.301832	1.309158	1.296703
00:00:00.017	1.311355	1.312088	1.290842
00:00:00.017	1.312088	1.306227	1.290110
00:00:00.019	1.304029	1.308425	1.305495
00:00:00.052	1.306960	1.301832	1.306960
00:00:00.052	1.320879	1.310623	1.317216
00:00:00.052	1.316484	1.306227	1.315018
00:00:00.052	1.315751	1.298901	1.309158
00:00:00.052	1.313553	1.286447	1.298901
00:00:00.052	1.321612	1.300366	1.315751
00:00:00.053	1.310623	1.298168	1.315018
00:00:00.053	1.321612	1.292308	1.323077
00:00:00.053	1.320147	1.296703	1.314286
00:00:00.053	1.295971	1.299634	1.295238
00:00:00.053	1.314286	1.312088	1.304029
00:00:00.054	1.308425	1.317216	1.309890
00:00:00.054	1.308425	1.311355	1.309890
00:00:00.054	1.312821	1.310623	1.303297
00:00:00.057	1.299634	1.310623	1.297436
00:00:00.057	1.307692	1.317949	1.300366
00:00:00.057	1.309890	1.332601	1.309158
00:00:00.057	1.309890	1.334066	1.300366
00:00:00.057	1.330403	1.333333	1.309158
00:00:00.057	1.321612	1.296703	1.290110
00:00:00.057	1.317949	1.287912	1.312821
00:00:00.057	1.315751	1.279121	1.304029
00:00:00.058	1.315751	1.281319	1.305495
00:00:00.058	1.315018	1.271062	1.304762
00:00:00.058	1.304762	1.287179	1.309158
00:00:00.059	1.300366	1.305495	1.295238
00:00:00.059	1.301832	1.317949	1.304762
00:00:00.059	1.306960	1.327473	1.312088
00:00:00.060	1.308425	1.331136	1.307692
00:00:00.060	1.307692	1.330403	1.317216
00:00:00.061	1.306227	1.326007	1.313553
00:00:00.061	1.306227	1.315751	1.304762
00:00:00.061	1.296703	1.308425	1.302564
00:00:00.062	1.311355	1.310623	1.300366
00:00:00.062	1.322344	1.303297	1.305495
00:00:00.062	1.315751	1.303297	1.307692
00:00:00.063	1.305495	1.287179	1.295238
00:00:00.063	1.329670	1.286447	1.306227
00:00:00.063	1.320879	1.285714	1.302564
00:00:00.064	1.317949	1.283516	1.309890
00:00:00.064	1.319414	1.303297	1.309890
00:00:00.064	1.308425	1.309158	1.300366
00:00:00.065	1.312088	1.312821	1.311355
00:00:00.065	1.307692	1.318681	1.313553
00:00:00.066	1.306960	1.317949	1.305495
00:00:00.066	1.304029	1.316484	1.298901
00:00:00.066	1.303297	1.319414	1.297436
00:00:00.067	1.292308	1.312088	1.306960
00:00:00.067	1.311355	1.322344	1.320879
00:00:00.067	1.311355	1.312088	1.306227
00:00:00.100	1.304762	1.298168	1.293773
00:00:00.100	1.315751	1.294505	1.300366
00:00:00.100	1.320879	1.300366	1.309158
00:00:00.101	1.307692	1.283516	1.291575
00:00:00.101	1.315018	1.291575	1.298901
00:00:00.101	1.306960	1.279121	1.293040
00:00:00.102	1.322344	1.308425	1.313553
00:00:00.102	1.309890	1.308425	1.308425
00:00:00.102	1.312821	1.303297	1.311355
00:00:00.103	1.312088	1.302564	1.304762
00:00:00.103	1.308425	1.316484	1.310623
00:00:00.103	1.309158	1.317949	1.306227
00:00:00.104	1.306227	1.316484	1.311355
00:00:00.104	1.302564	1.306960	1.309158
00:00:00.105	1.306227	1.307692	1.307692
00:00:00.105	1.304762	1.315018	1.302564
00:00:00.105	1.312088	1.316484	1.300366
00:00:00.106	1.317949	1.317949	1.311355
00:00:00.106	1.314286	1.305495	1.305495
00:00:00.106	1.317949	1.308425	1.310623
00:00:00.107	1.312088	1.296703	1.295238
00:00:00.107	1.312088	1.293773	1.298168
00:00:00.107	1.315018	1.309890	1.304029
00:00:00.108	1.318681	1.309158	1.305495
00:00:00.108	1.314286	1.306227	1.315018
00:00:00.108	1.314286	1.304029	1.304029
00:00:00.110	1.297436	1.290110	1.298901
00:00:00.110	1.298168	1.293773	1.300366
00:00:00.110	1.308425	1.297436	1.304029
00:00:00.110	1.312088	1.326007	1.315018
00:00:00.110	1.308425	1.312088	1.309158
00:00:00.111	1.301832	1.280586	1.302564
00:00:00.111	1.301832	1.298901	1.308425
00:00:00.111	1.295238	1.323810	1.296703
00:00:00.112	1.314286	1.342857	1.315751
00:00:00.112	1.322344	1.323810	1.314286
00:00:00.112	1.322344	1.300366	1.315751
00:00:00.113	1.321612	1.294505	1.317216
00:00:00.113	1.323077	1.301832	1.310623
00:00:00.113	1.342125	1.299634	1.311355
00:00:00.115	1.334799	1.293773	1.314286
00:00:00.115	1.327473	1.298168	1.305495
00:00:00.115	1.309158	1.300366	1.309158
00:00:00.115	1.305495	1.317216	1.309158
00:00:00.115	1.307692	1.327473	1.278388
00:00:00.117	1.309890	1.334799	1.300366
00:00:00.117	1.313553	1.331136	1.317949
00:00:00.117	1.268132	1.320879	1.320147
00:00:00.117	1.276923	1.306227	1.315018
00:00:00.117	1.268864	1.286447	1.304762
00:00:00.149	1.189744	1.271062	1.284982
00:00:00.153	1.251282	1.280586	1.227106
00:00:00.153	1.276190	1.307692	1.280586
00:00:00.153	1.304762	1.306227	1.304029
00:00:00.153	1.312088	1.306960	1.329670
00:00:00.153	1.402930	1.292308	1.300366
00:00:00.153	1.487179	1.299634	1.264469
00:00:00.153	1.376557	1.299634	1.329670
00:00:00.153	1.313553	1.303297	1.351648
00:00:00.153	1.299634	1.313553	1.320147
00:00:00.153	1.299634	1.306960	1.312088
00:00:00.153	1.313553	1.312088	1.320879
00:00:00.154	1.306227	1.309890	1.312088
00:00:00.154	1.319414	1.317216	1.287912
00:00:00.154	1.276923	1.315018	1.271795
00:00:00.155	1.271795	1.320879	1.252747
00:00:00.155	1.283516	1.306960	1.290842
00:00:00.155	1.280586	1.297436	1.322344
00:00:00.156	1.358974	1.297436	1.328938
00:00:00.156	1.323077	1.301832	1.334799
00:00:00.156	1.357509	1.282784	1.338462
00:00:00.157	1.372161	1.279853	1.336264
00:00:00.157	1.282051	1.272527	1.268864
00:00:00.157	1.222711	1.288645	1.254945
00:00:00.158	1.304029	1.318681	1.307692
00:00:00.158	1.350916	1.345055	1.321612
00:00:00.159	1.331136	1.338462	1.317949
00:00:00.159	1.294505	1.309890	1.310623
00:00:00.159	1.306227	1.289377	1.307692
00:00:00.160	1.299634	1.264469	1.315751
00:00:00.160	1.303297	1.269597	1.314286
00:00:00.160	1.296703	1.312088	1.312821
00:00:00.161	1.305495	1.366300	1.305495
00:00:00.162	1.303297	1.356777	1.308425
00:00:00.162	1.296703	1.327473	1.306960
00:00:00.162	1.306227	1.307692	1.312088
00:00:00.162	1.327473	1.305495	1.300366
00:00:00.162	1.329670	1.297436	1.304029
00:00:00.163	1.325275	1.300366	1.311355
00:00:00.163	1.320879	1.299634	1.312088
00:00:00.164	1.321612	1.257143	1.306960
00:00:00.164	1.312821	1.218315	1.306227
00:00:00.164	1.306227	1.276190	1.304029
00:00:00.165	1.306227	1.332601	1.308425
00:00:00.165	1.304029	1.356777	1.302564
00:00:00.165	1.299634	1.342857	1.306960
00:00:00.166	1.307692	1.338462	1.307692
00:00:00.166	1.312821	1.347253	1.310623
00:00:00.166	1.310623	1.370696	1.311355
00:00:00.167	1.312821	1.352381	1.306960
00:00:00.199	1.307692	1.334066	1.310623
00:00:00.199	1.312821	1.306960	1.310623
00:00:00.200	1.308425	1.282784	1.294505
00:00:00.200	1.326740	1.267399	1.306227
00:00:00.200	1.318681	1.261538	1.300366
00:00:00.201	1.319414	1.282051	1.304029
00:00:00.201	1.299634	1.283516	1.309890
00:00:00.201	1.304762	1.271795	1.304029
00:00:00.202	1.309158	1.279121	1.309890
00:00:00.202	1.312088	1.297436	1.307692
00:00:00.203	1.303297	1.307692	1.295238
00:00:00.203	1.308425	1.347985	1.311355
00:00:00.203	1.303297	1.349451	1.298168
00:00:00.204	1.299634	1.352381	1.305495
00:00:00.204	1.309158	1.333333	1.306960
00:00:00.204	1.315751	1.301099	1.307692
00:00:00.205	1.309158	1.301832	1.309890
00:00:00.205	1.312821	1.298901	1.304029
00:00:00.205	1.306227	1.296703	1.300366
00:00:00.206	1.323077	1.290110	1.302564
00:00:00.206	1.317949	1.276923	1.293773
00:00:00.206	1.319414	1.284249	1.306227
00:00:00.207	1.328938	1.274725	1.306227
00:00:00.207	1.270330	1.260806	1.303297
00:00:00.208	1.287912	1.268132	1.302564
00:00:00.208	1.323077	1.306960	1.311355
00:00:00.208	1.312821	1.309158	1.302564
00:00:00.212	1.309890	1.317949	1.306960
00:00:00.212	1.304762	1.314286	1.305495
00:00:00.212	1.291575	1.306227	1.298168
00:00:00.212	1.291575	1.304029	1.300366
00:00:00.212	1.309890	1.313553	1.308425
00:00:00.212	1.311355	1.320147	1.307692
00:00:00.212	1.315018	1.320879	1.304762
00:00:00.212	1.315751	1.327473	1.306960
00:00:00.213	1.315751	1.332601	1.309890
00:00:00.213	1.306227	1.323077	1.293040
00:00:00.213	1.320147	1.323077	1.304762
00:00:00.213	1.312821	1.273993	1.303297
00:00:00.214	1.319414	1.277656	1.297436
00:00:00.214	1.325275	1.312088	1.316484
00:00:00.214	1.325275	1.311355	1.314286
00:00:00.214	1.311355	1.301832	1.308425
00:00:00.217	1.315751	1.315751	1.309890
00:00:00.217	1.302564	1.307692	1.291575
00:00:00.217	1.301099	1.295238	1.300366
00:00:00.217	1.304029	1.292308	1.306227
00:00:00.217	1.297436	1.297436	1.309158
00:00:00.217	1.307692	1.305495	1.304762
00:00:00.217	1.301099	1.302564	1.306960
00:00:00.249	1.311355	1.305495	1.306960
00:00:00.249	1.315018	1.312821	1.312088
00:00:00.249	1.323077	1.318681	1.314286
00:00:00.250	1.317216	1.312088	1.309158
00:00:00.250	1.322344	1.292308	1.309890
00:00:00.250	1.299634	1.273993	1.295971
00:00:00.251	1.314286	1.258608	1.305495
00:00:00.251	1.301832	1.273260	1.296703
00:00:00.252	1.300366	1.309890	1.290842
00:00:00.252	1.309158	1.347253	1.311355
00:00:00.252	1.325275	1.339927	1.310623
00:00:00.253	1.329670	1.320147	1.312088
00:00:00.253	1.313553	1.320147	1.309158
00:00:00.253	1.309890	1.331136	1.311355
00:00:00.254	1.306960	1.322344	1.306227
00:00:00.254	1.308425	1.340659	1.312088
00:00:00.254	1.307692	1.327473	1.307692
00:00:00.255	1.295971	1.291575	1.304762
00:00:00.255	1.308425	1.288645	1.298168
00:00:00.256	1.311355	1.257143	1.297436
00:00:00.256	1.316484	1.192674	1.310623
00:00:00.256	1.311355	1.252747	1.309890
00:00:00.257	1.300366	1.274725	1.300366
00:00:00.257	1.309158	1.297436	1.290110
00:00:00.257	1.318681	1.347253	1.306960
00:00:00.258	1.315751	1.357509	1.309890
00:00:00.258	1.310623	1.347253	1.289377
00:00:00.258	1.315751	1.394139	1.308425
00:00:00.259	1.313553	1.361905	1.312088
00:00:00.259	1.309158	1.361905	1.306227
00:00:00.259	1.303297	1.316484	1.304762
00:00:00.260	1.308425	1.290110	1.307692
00:00:00.260	1.300366	1.261538	1.300366
00:00:00.261	1.308425	1.278388	1.315751
00:00:00.261	1.304029	1.284249	1.298901
00:00:00.261	1.312821	1.298901	1.305495
00:00:00.262	1.304029	1.289377	1.298901
00:00:00.262	1.318681	1.293040	1.312088
00:00:00.262	1.319414	1.280586	1.305495
00:00:00.263	1.315751	1.279853	1.303297
00:00:00.263	1.312821	1.279121	1.304029
00:00:00.263	1.338462	1.295238	1.315751
00:00:00.264	1.350916	1.308425	1.307692
00:00:00.264	1.340659	1.303297	1.300366
00:00:00.264	1.324542	1.310623	1.300366
00:00:00.265	1.312088	1.321612	1.307692
00:00:00.266	1.304029	1.321612	1.309158
00:00:00.266	1.262271	1.321612	1.317216
00:00:00.266	1.193407	1.331136	1.304762
00:00:00.266	1.267399	1.353114	1.292308
00:00:00.298	1.310623	1.373626	1.304762
00:00:00.299	1.329670	1.367033	1.306960
00:00:00.299	1.324542	1.345788	1.307692
00:00:00.300	1.329670	1.309158	1.304762
00:00:00.300	1.327473	1.256410	1.303297
00:00:00.300	1.324542	1.205128	1.306227
00:00:00.301	1.327473	1.212454	1.315018
00:00:00.301	1.318681	1.240293	1.319414
00:00:00.301	1.315018	1.252015	1.295971
00:00:00.302	1.323810	1.287912	1.313553
00:00:00.302	1.309890	1.304029	1.312088
00:00:00.302	1.304762	1.312821	1.300366
00:00:00.303	1.302564	1.317216	1.294505
00:00:00.303	1.302564	1.331868	1.295971
00:00:00.303	1.304029	1.337729	1.306227
00:00:00.304	1.310623	1.334799	1.313553
00:00:00.304	1.310623	1.319414	1.304762
00:00:00.307	1.308425	1.320147	1.306227
00:00:00.307	1.310623	1.334066	1.304762
00:00:00.307	1.317949	1.328938	1.311355
00:00:00.307	1.316484	1.327473	1.303297
00:00:00.307	1.323810	1.318681	1.306227
00:00:00.307	1.322344	1.285714	1.304762
00:00:00.308	1.319414	1.287912	1.301832
00:00:00.308	1.317949	1.304029	1.302564
00:00:00.308	1.315018	1.314286	1.302564
00:00:00.309	1.311355	1.323810	1.309890
00:00:00.309	1.309158	1.335531	1.302564
00:00:00.309	1.308425	1.354579	1.309890
00:00:00.309	1.306960	1.342857	1.306227
00:00:00.309	1.309158	1.302564	1.307692
00:00:00.310	1.304029	1.271062	1.309890
00:00:00.310	1.312088	1.279121	1.306960
00:00:00.310	1.313553	1.276190	1.311355
00:00:00.313	1.314286	1.288645	1.305495
00:00:00.313	1.306227	1.284249	1.298168
00:00:00.313	1.317949	1.301832	1.315018
00:00:00.313	1.314286	1.300366	1.300366
00:00:00.313	1.314286	1.305495	1.294505
00:00:00.313	1.318681	1.309890	1.302564
00:00:00.313	1.320147	1.307692	1.304762
00:00:00.313	1.320879	1.311355	1.309158
00:00:00.313	1.309158	1.306960	1.293040
00:00:00.314	1.308425	1.304029	1.300366
00:00:00.314	1.311355	1.296703	1.308425
00:00:00.315	1.293040	1.293773	1.300366
00:00:00.315	1.308425	1.316484	1.300366
00:00:00.315	1.305495	1.315751	1.314286
00:00:00.316	1.295971	1.302564	1.300366
00:00:00.316	1.309890	1.333333	1.308425
00:00:00.348	1.306227	1.355311	1.297436
00:00:00.349	1.309158	1.349451	1.307692
00:00:00.349	1.312088	1.335531	1.306960
00:00:00.350	1.301099	1.300366	1.303297
00:00:00.350	1.319414	1.298901	1.313553
00:00:00.350	1.314286	1.276923	1.314286
00:00:00.350	1.315018	1.292308	1.306960
00:00:00.351	1.322344	1.342125	1.310623
00:00:00.351	1.315018	1.310623	1.304029
00:00:00.351	1.315751	1.273993	1.302564
00:00:00.352	1.303297	1.256410	1.307692
00:00:00.352	1.291575	1.250549	1.299634
00:00:00.352	1.314286	1.287179	1.315018
00:00:00.353	1.312088	1.317949	1.312821
00:00:00.353	1.307692	1.315751	1.311355
00:00:00.354	1.310623	1.331868	1.311355
00:00:00.354	1.308425	1.376557	1.308425
00:00:00.354	1.314286	1.363370	1.312821
00:00:00.355	1.308425	1.353114	1.306960
00:00:00.355	1.307692	1.317216	1.298901
00:00:00.355	1.318681	1.297436	1.305495
00:00:00.356	1.308425	1.275458	1.298901
00:00:00.356	1.317949	1.270330	1.304762
00:00:00.356	1.317216	1.264469	1.306960
00:00:00.357	1.312088	1.271795	1.303297
00:00:00.357	1.315018	1.297436	1.304762
00:00:00.357	1.309158	1.265934	1.293773
00:00:00.358	1.313553	1.304029	1.309890
00:00:00.358	1.312088	1.323077	1.315018
00:00:00.359	1.308425	1.320147	1.310623
00:00:00.359	1.310623	1.338462	1.304762
00:00:00.359	1.309158	1.352381	1.313553
00:00:00.360	1.293773	1.348718	1.297436
00:00:00.360	1.312088	1.353846	1.312088
00:00:00.360	1.309158	1.318681	1.298901
00:00:00.361	1.304029	1.313553	1.304762
00:00:00.361	1.312821	1.326740	1.298168
00:00:00.361	1.312821	1.312088	1.308425
00:00:00.362	1.315751	1.299634	1.300366
00:00:00.362	1.314286	1.296703	1.312088
00:00:00.362	1.317216	1.283516	1.303297
00:00:00.363	1.319414	1.238095	1.309158
00:00:00.363	1.321612	1.206593	1.312821
00:00:00.364	1.317949	1.268864	1.310623
00:00:00.364	1.309158	1.326740	1.304029
00:00:00.364	1.299634	1.339194	1.298168
00:00:00.365	1.306960	1.338462	1.296703
00:00:00.365	1.302564	1.334799	1.296703
00:00:00.365	1.300366	1.337729	1.299634
00:00:00.366	1.306960	1.342857	1.303297
00:00:00.398	1.295238	1.335531	1.307692
00:00:00.398	1.287912	1.320879	1.299634
00:00:00.399	1.312088	1.310623	1.298168
00:00:00.399	1.319414	1.315018	1.309890
00:00:00.399	1.312088	1.284982	1.296703
00:00:00.400	1.323077	1.292308	1.312088
00:00:00.400	1.320147	1.300366	1.309158
00:00:00.400	1.309158	1.293773	1.300366
00:00:00.401	1.322344	1.298901	1.304762
00:00:00.402	1.312088	1.296703	1.298901
00:00:00.404	1.314286	1.308425	1.307692
00:00:00.404	1.307692	1.306227	1.304029
00:00:00.404	1.300366	1.299634	1.306227
00:00:00.404	1.293773	1.309158	1.293040
00:00:00.404	1.301099	1.335531	1.304029
00:00:00.404	1.297436	1.325275	1.303297
00:00:00.404	1.301832	1.312088	1.303297
00:00:00.405	1.300366	1.326007	1.306960
00:00:00.405	1.311355	1.327473	1.309158
00:00:00.405	1.316484	1.300366	1.296703
00:00:00.405	1.323810	1.303297	1.312821
00:00:00.405	1.320147	1.299634	1.306960
00:00:00.406	1.317216	1.287179	1.304762
00:00:00.406	1.301099	1.265201	1.294505
00:00:00.410	1.309890	1.289377	1.304762
00:00:00.410	1.326007	1.310623	1.309158
00:00:00.410	1.315018	1.311355	1.300366
00:00:00.410	1.313553	1.314286	1.306227
00:00:00.410	1.311355	1.312088	1.308425
00:00:00.410	1.296703	1.306960	1.300366
00:00:00.410	1.300366	1.317216	1.296703
00:00:00.410	1.306227	1.334066	1.310623
00:00:00.410	1.308425	1.336996	1.310623
00:00:00.410	1.302564	1.323810	1.312821
00:00:00.410	1.312088	1.319414	1.305495
00:00:00.410	1.309158	1.309890	1.306960
00:00:00.411	1.317949	1.306227	1.304762
00:00:00.411	1.311355	1.293773	1.302564
00:00:00.412	1.323810	1.293040	1.304029
00:00:00.412	1.323810	1.293040	1.306960
00:00:00.412	1.309158	1.279121	1.297436
00:00:00.413	1.310623	1.290842	1.298168
00:00:00.413	1.315018	1.298901	1.300366
00:00:00.413	1.311355	1.309158	1.311355
00:00:00.414	1.312821	1.321612	1.307692
00:00:00.414	1.308425	1.326007	1.298168
00:00:00.414	1.313553	1.341392	1.310623
00:00:00.415	1.306960	1.319414	1.300366
00:00:00.415	1.306960	1.316484	1.304029
00:00:00.415	1.311355	1.323810	1.306960
00:00:00.448	1.302564	1.315751	1.303297
00:00:00.448	1.309158	1.317949	1.309158
00:00:00.448	1.309158	1.320879	1.300366
00:00:00.449	1.317216	1.329670	1.312088
00:00:00.449	1.315751	1.330403	1.309890
00:00:00.449	1.318681	1.404396	1.309890
00:00:00.450	1.320147	1.394872	1.303297
00:00:00.450	1.321612	1.338462	1.306960
00:00:00.451	1.315018	1.277656	1.312088
00:00:00.451	1.313553	1.251282	1.316484
00:00:00.451	1.314286	1.249817	1.307692
00:00:00.452	1.310623	1.236630	1.306960
00:00:00.452	1.311355	1.190476	1.308425
00:00:00.452	1.303297	1.158974	1.286447
00:00:00.453	1.303297	1.222711	1.298901
00:00:00.453	1.309158	1.265934	1.302564
00:00:00.453	1.306227	1.307692	1.308425
00:00:00.455	1.314286	1.334066	1.314286
00:00:00.455	1.295971	1.339194	1.298901
00:00:00.455	1.314286	1.382418	1.308425
00:00:00.455	1.316484	1.373626	1.306227
00:00:00.455	1.317949	1.352381	1.299634
00:00:00.456	1.315018	1.322344	1.309158
00:00:00.456	1.320879	1.321612	1.311355
00:00:00.456	1.306960	1.298901	1.308425
00:00:00.457	1.316484	1.259341	1.305495
00:00:00.457	1.312821	1.242491	1.296703
00:00:00.457	1.315751	1.314286	1.309890
00:00:00.458	1.309158	1.338462	1.311355
00:00:00.458	1.300366	1.335531	1.308425
00:00:00.458	1.298901	1.323077	1.303297
00:00:00.459	1.290842	1.297436	1.298168
00:00:00.459	1.294505	1.302564	1.292308
00:00:00.459	1.302564	1.331868	1.306960
00:00:00.460	1.312821	1.345055	1.312821
00:00:00.460	1.311355	1.349451	1.307692
00:00:00.462	1.316484	1.346520	1.304029
00:00:00.462	1.312088	1.328938	1.306960
00:00:00.462	1.308425	1.298901	1.298901
00:00:00.462	1.323077	1.278388	1.306960
00:00:00.462	1.308425	1.233700	1.300366
00:00:00.462	1.317949	1.257875	1.314286
00:00:00.463	1.315018	1.237363	1.299634
00:00:00.463	1.306960	1.238828	1.299634
00:00:00.463	1.315751	1.296703	1.306227
00:00:00.464	1.313553	1.336264	1.305495
00:00:00.464	1.313553	1.334799	1.310623
00:00:00.464	1.314286	1.353114	1.309158
00:00:00.466	1.312088	1.386813	1.312821
00:00:00.466	1.308425	1.367033	1.313553
00:00:00.497	1.296703	1.315751	1.307692
00:00:00.500	1.312821	1.318681	1.307692
00:00:00.500	1.314286	1.315751	1.307692
00:00:00.500	1.308425	1.289377	1.299634
00:00:00.500	1.323077	1.301832	1.312088
00:00:00.500	1.309158	1.287912	1.300366
00:00:00.502	1.318681	1.298168	1.304762
00:00:00.502	1.317949	1.294505	1.307692
00:00:00.502	1.324542	1.300366	1.309158
00:00:00.502	1.312821	1.305495	1.303297
00:00:00.502	1.311355	1.309890	1.304762
00:00:00.502	1.309158	1.302564	1.304762
00:00:00.502	1.311355	1.309890	1.305495
00:00:00.502	1.306960	1.313553	1.306227
00:00:00.502	1.301099	1.311355	1.306227
00:00:00.506	1.303297	1.304762	1.305495
00:00:00.506	1.307692	1.323077	1.306227
00:00:00.506	1.308425	1.317949	1.304029
00:00:00.506	1.305495	1.315018	1.306227
00:00:00.506	1.310623	1.313553	1.308425
00:00:00.506	1.311355	1.304762	1.306960
00:00:00.506	1.317949	1.300366	1.304762
00:00:00.506	1.311355	1.314286	1.305495
00:00:00.506	1.317216	1.361172	1.306227
00:00:00.507	1.312088	1.359707	1.306960
00:00:00.507	1.319414	1.323810	1.309890
00:00:00.507	1.317216	1.290842	1.316484
00:00:00.507	1.310623	1.269597	1.309158
00:00:00.507	1.302564	1.268864	1.306227
00:00:00.508	1.304762	1.266667	1.295971
00:00:00.508	1.304762	1.235897	1.303297
00:00:00.508	1.301832	1.264469	1.302564
00:00:00.509	1.298168	1.317216	1.304762
00:00:00.509	1.301832	1.331136	1.304762
00:00:00.510	1.302564	1.310623	1.304029
00:00:00.510	1.314286	1.286447	1.304762
00:00:00.510	1.313553	1.273993	1.306960
00:00:00.511	1.309890	1.301832	1.290110
00:00:00.511	1.323077	1.328938	1.304029
00:00:00.511	1.310623	1.323077	1.305495
00:00:00.512	1.320879	1.327473	1.309890
00:00:00.512	1.316484	1.300366	1.292308
00:00:00.512	1.310623	1.298168	1.304762
00:00:00.513	1.316484	1.306960	1.303297
00:00:00.513	1.304762	1.304029	1.305495
00:00:00.513	1.317216	1.312821	1.309158
00:00:00.514	1.310623	1.306960	1.295238
00:00:00.514	1.305495	1.320879	1.303297
00:00:00.515	1.306227	1.334799	1.306960
00:00:00.515	1.293773	1.362637	1.300366
00:00:00.547	1.311355	1.415385	1.312821
00:00:00.547	1.304029	1.363370	1.300366
00:00:00.548	1.306960	1.298168	1.302564
00:00:00.548	1.295238	1.235897	1.307692
00:00:00.549	1.300366	1.216117	1.300366
00:00:00.549	1.312088	1.238095	1.308425
00:00:00.549	1.317949	1.245421	1.306227
00:00:00.550	1.309890	1.251282	1.293040
00:00:00.550	1.309158	1.284982	1.300366
00:00:00.550	1.300366	1.302564	1.296703
00:00:00.551	1.310623	1.329670	1.309158
00:00:00.551	1.309158	1.370696	1.304029
00:00:00.551	1.308425	1.390476	1.311355
00:00:00.552	1.309158	1.362637	1.307692
00:00:00.552	1.301099	1.324542	1.304029
00:00:00.552	1.308425	1.263004	1.307692
00:00:00.553	1.309158	1.232234	1.304762
00:00:00.553	1.316484	1.250549	1.307692
00:00:00.554	1.320147	1.284249	1.304762
00:00:00.554	1.322344	1.298168	1.314286
00:00:00.554	1.304029	1.315018	1.304762
00:00:00.555	1.316484	1.340659	1.304029
00:00:00.555	1.309158	1.346520	1.305495
00:00:00.555	1.318681	1.397070	1.312088
00:00:00.556	1.315018	1.422711	1.306227
00:00:00.556	1.322344	1.416850	1.317216
00:00:00.556	1.309890	1.371429	1.305495
00:00:00.557	1.305495	1.312088	1.296703
00:00:00.557	1.312821	1.249817	1.308425
00:00:00.557	1.307692	1.169963	1.299634
00:00:00.558	1.306227	1.101099	1.298901
00:00:00.559	1.306227	1.146520	1.299634
00:00:00.559	1.306960	1.221245	1.301832
00:00:00.559	1.310623	1.318681	1.306227
00:00:00.559	1.299634	1.358974	1.293773
00:00:00.560	1.314286	1.366300	1.309890
00:00:00.560	1.310623	1.342125	1.308425
00:00:00.560	1.315018	1.327473	1.311355
00:00:00.563	1.316484	1.328205	1.305495
00:00:00.563	1.306227	1.299634	1.293040
00:00:00.563	1.313553	1.308425	1.309158
00:00:00.563	1.325275	1.320147	1.308425
00:00:00.563	1.315751	1.309890	1.302564
00:00:00.563	1.320147	1.347253	1.313553
00:00:00.563	1.323077	1.374359	1.312821
00:00:00.565	1.317949	1.361905	1.308425
00:00:00.565	1.305495	1.331136	1.306227
00:00:00.565	1.316484	1.338462	1.308425
00:00:00.565	1.307692	1.343590	1.313553
00:00:00.565	1.312088	1.339927	1.315751
00:00:00.598	1.306227	1.263736	1.303297
00:00:00.598	1.293040	1.215385	1.290842
00:00:00.598	1.304762	1.239560	1.298901
00:00:00.598	1.305495	1.273993	1.305495
00:00:00.598	1.314286	1.277656	1.312821
00:00:00.602	1.307692	1.271795	1.300366
00:00:00.602	1.311355	1.306227	1.313553
00:00:00.602	1.312088	1.309158	1.308425
00:00:00.602	1.307692	1.320879	1.309158
00:00:00.602	1.315018	1.327473	1.312821
00:00:00.602	1.319414	1.331136	1.310623
00:00:00.602	1.319414	1.328205	1.315751
00:00:00.602	1.310623	1.328205	1.312088
00:00:00.602	1.299634	1.323077	1.303297
00:00:00.602	1.311355	1.333333	1.309158
00:00:00.602	1.315018	1.334066	1.305495
00:00:00.603	1.306227	1.323077	1.298901
00:00:00.603	1.309890	1.328205	1.312088
00:00:00.603	1.303297	1.312821	1.300366
00:00:00.604	1.308425	1.313553	1.310623
00:00:00.604	1.314286	1.309158	1.306227
00:00:00.604	1.315751	1.295238	1.293773
00:00:00.605	1.317949	1.294505	1.300366
00:00:00.605	1.323077	1.330403	1.308425
00:00:00.605	1.319414	1.320879	1.300366
00:00:00.606	1.325275	1.309890	1.304762
00:00:00.606	1.320879	1.291575	1.310623
00:00:00.606	1.324542	1.284982	1.307692
00:00:00.607	1.312821	1.279853	1.311355
00:00:00.607	1.301099	1.273260	1.301832
00:00:00.608	1.306227	1.267399	1.302564
00:00:00.608	1.300366	1.278388	1.309890
00:00:00.608	1.284982	1.305495	1.303297
00:00:00.609	1.294505	1.323077	1.299634
00:00:00.609	1.307692	1.338462	1.309890
00:00:00.609	1.314286	1.336264	1.309158
00:00:00.610	1.312088	1.321612	1.310623
00:00:00.610	1.310623	1.309158	1.309158
00:00:00.611	1.315751	1.300366	1.299634
00:00:00.611	1.326007	1.309890	1.304762
00:00:00.611	1.320147	1.301832	1.308425
00:00:00.612	1.320879	1.294505	1.304762
00:00:00.612	1.317949	1.290842	1.295238
00:00:00.612	1.323077	1.302564	1.306227
00:00:00.613	1.323810	1.306960	1.310623
00:00:00.613	1.315751	1.309890	1.306960
00:00:00.613	1.313553	1.333333	1.306960
00:00:00.614	1.316484	1.358242	1.308425
00:00:00.614	1.309890	1.350916	1.305495
00:00:00.614	1.310623	1.335531	1.304029
00:00:00.647	1.306227	1.309158	1.309158
00:00:00.647	1.299634	1.293040	1.304029
00:00:00.647	1.304029	1.273260	1.305495
00:00:00.648	1.298168	1.246154	1.290110
00:00:00.648	1.305495	1.243956	1.300366
00:00:00.648	1.306227	1.263736	1.303297
00:00:00.649	1.310623	1.300366	1.306960
00:00:00.649	1.309158	1.324542	1.312088
00:00:00.649	1.304762	1.305495	1.300366
00:00:00.650	1.300366	1.306227	1.308425
00:00:00.650	1.316484	1.304029	1.312088
00:00:00.650	1.315018	1.304029	1.301832
00:00:00.651	1.322344	1.315751	1.312821
00:00:00.651	1.315751	1.317216	1.309158
00:00:00.652	1.303297	1.312088	1.304029
00:00:00.652	1.312088	1.324542	1.302564
00:00:00.652	1.313553	1.329670	1.308425
00:00:00.653	1.298901	1.331136	1.306227
00:00:00.653	1.309890	1.333333	1.310623
00:00:00.653	1.315018	1.318681	1.306227
00:00:00.654	1.306227	1.300366	1.300366
00:00:00.654	1.309158	1.304029	1.306227
00:00:00.654	1.320147	1.299634	1.308425
00:00:00.655	1.308425	1.284982	1.305495
00:00:00.655	1.323077	1.293773	1.307692
00:00:00.655	1.319414	1.293040	1.307692
00:00:00.656	1.325275	1.300366	1.314286
00:00:00.656	1.318681	1.301832	1.306227
00:00:00.657	1.304762	1.288645	1.290842
00:00:00.657	1.317949	1.316484	1.312821
00:00:00.657	1.307692	1.313553	1.306227
00:00:00.659	1.308425	1.321612	1.309158
00:00:00.659	1.309158	1.320147	1.308425
00:00:00.659	1.302564	1.330403	1.306227
00:00:00.660	1.301832	1.336996	1.312088
00:00:00.660	1.312088	1.338462	1.309158
00:00:00.660	1.305495	1.315751	1.298168
00:00:00.661	1.320879	1.315751	1.309158
00:00:00.661	1.317949	1.302564	1.302564
00:00:00.662	1.317949	1.292308	1.310623
00:00:00.662	1.318681	1.263004	1.306960
00:00:00.662	1.304762	1.231502	1.289377
00:00:00.662	1.314286	1.265201	1.308425
00:00:00.662	1.315751	1.284249	1.302564
00:00:00.662	1.315751	1.304029	1.304762
00:00:00.666	1.312088	1.306960	1.303297
00:00:00.666	1.306960	1.299634	1.304762
00:00:00.666	1.301832	1.309158	1.304029
00:00:00.666	1.304762	1.309890	1.308425
00:00:00.666	1.303297	1.345788	1.304029
00:00:00.698	1.307692	1.394872	1.301832
00:00:00.698	1.304029	1.386813	1.302564
00:00:00.698	1.312821	1.342125	1.308425
00:00:00.698	1.300366	1.272527	1.299634
00:00:00.698	1.315018	1.252747	1.311355
00:00:00.698	1.315018	1.241026	1.306227
00:00:00.698	1.312821	1.257875	1.305495
00:00:00.699	1.317216	1.276923	1.308425
00:00:00.699	1.326007	1.316484	1.314286
00:00:00.700	1.319414	1.314286	1.308425
00:00:00.700	1.320879	1.303297	1.303297
00:00:00.700	1.312821	1.278388	1.296703
00:00:00.701	1.313553	1.276923	1.300366
00:00:00.701	1.301099	1.310623	1.306227
00:00:00.701	1.301099	1.320879	1.300366
00:00:00.702	1.294505	1.318681	1.308425
00:00:00.702	1.299634	1.304029	1.293773
00:00:00.702	1.301832	1.306227	1.305495
00:00:00.703	1.303297	1.298168	1.302564
00:00:00.703	1.309158	1.320879	1.306960
00:00:00.703	1.311355	1.323810	1.302564
00:00:00.704	1.319414	1.318681	1.306227
00:00:00.704	1.317949	1.326740	1.300366
00:00:00.705	1.327473	1.349451	1.312821
00:00:00.705	1.320879	1.329670	1.309890
00:00:00.705	1.312088	1.301832	1.298901
00:00:00.706	1.309890	1.283516	1.299634
00:00:00.706	1.314286	1.292308	1.304762
00:00:00.706	1.313553	1.293040	1.303297
00:00:00.707	1.299634	1.288645	1.305495
00:00:00.707	1.310623	1.300366	1.304762
00:00:00.707	1.304029	1.314286	1.295971
00:00:00.708	1.300366	1.323810	1.295971
00:00:00.708	1.308425	1.331868	1.304029
00:00:00.708	1.308425	1.330403	1.309890
00:00:00.709	1.309158	1.347253	1.304762
00:00:00.709	1.296703	1.352381	1.297436
00:00:00.710	1.304762	1.345788	1.298901
00:00:00.710	1.315018	1.312821	1.300366
00:00:00.710	1.315018	1.287179	1.310623
00:00:00.711	1.318681	1.258608	1.303297
00:00:00.711	1.315751	1.232967	1.304029
00:00:00.711	1.323077	1.230037	1.309158
00:00:00.712	1.306227	1.209524	1.300366
00:00:00.712	1.320147	1.268132	1.309158
00:00:00.712	1.310623	1.297436	1.309158
00:00:00.713	1.310623	1.311355	1.305495
00:00:00.713	1.305495	1.315018	1.306227
00:00:00.713	1.306960	1.333333	1.307692
00:00:00.714	1.303297	1.350183	1.295971
00:00:00.746	1.310623	1.360440	1.304762
00:00:00.747	1.311355	1.362637	1.311355
00:00:00.747	1.296703	1.337729	1.301832
00:00:00.747	1.306227	1.324542	1.305495
00:00:00.747	1.315751	1.315751	1.306227
00:00:00.748	1.313553	1.296703	1.297436
00:00:00.748	1.317216	1.289377	1.311355
00:00:00.749	1.316484	1.273993	1.295238
00:00:00.749	1.312088	1.269597	1.296703
00:00:00.749	1.314286	1.285714	1.304762
00:00:00.750	1.306227	1.288645	1.300366
00:00:00.750	1.314286	1.307692	1.304762
00:00:00.750	1.309158	1.310623	1.307692
00:00:00.751	1.304029	1.320147	1.298901
00:00:00.751	1.309158	1.355311	1.306227
00:00:00.751	1.302564	1.352381	1.300366
00:00:00.752	1.303297	1.330403	1.297436
00:00:00.752	1.304762	1.321612	1.306227
00:00:00.752	1.304762	1.298168	1.300366
00:00:00.753	1.313553	1.290110	1.307692
00:00:00.753	1.311355	1.271062	1.308425
00:00:00.754	1.306227	1.257143	1.309158
00:00:00.754	1.313553	1.287912	1.300366
00:00:00.754	1.319414	1.299634	1.303297
00:00:00.756	1.319414	1.297436	1.304029
00:00:00.756	1.314286	1.282784	1.300366
00:00:00.756	1.312821	1.296703	1.312821
00:00:00.756	1.317949	1.293773	1.307692
00:00:00.756	1.311355	1.274725	1.293040
00:00:00.756	1.317216	1.310623	1.307692
00:00:00.757	1.310623	1.316484	1.293773
00:00:00.757	1.312821	1.334799	1.309158
00:00:00.757	1.308425	1.334799	1.304762
00:00:00.761	1.307692	1.334066	1.306227
00:00:00.761	1.305495	1.328938	1.308425
00:00:00.761	1.305495	1.319414	1.304029
00:00:00.761	1.307692	1.315751	1.301832
00:00:00.761	1.308425	1.291575	1.292308
00:00:00.761	1.313553	1.302564	1.300366
00:00:00.761	1.317216	1.293040	1.297436
00:00:00.761	1.324542	1.300366	1.306960
00:00:00.761	1.322344	1.297436	1.311355
00:00:00.761	1.321612	1.296703	1.302564
00:00:00.761	1.325275	1.299634	1.304762
00:00:00.762	1.314286	1.298901	1.303297
00:00:00.762	1.317216	1.307692	1.310623
00:00:00.762	1.307692	1.310623	1.307692
00:00:00.763	1.310623	1.320879	1.305495
00:00:00.763	1.311355	1.320147	1.309158
00:00:00.764	1.304762	1.326007	1.312821
00:00:00.796	1.310623	1.332601	1.314286
00:00:00.796	1.303297	1.320879	1.306227
00:00:00.796	1.294505	1.333333	1.298901
00:00:00.797	1.306960	1.347985	1.309890
00:00:00.797	1.312088	1.333333	1.311355
00:00:00.798	1.317949	1.310623	1.304762
00:00:00.798	1.320879	1.294505	1.304762
00:00:00.798	1.320879	1.286447	1.304029
00:00:00.800	1.323810	1.295971	1.309890
00:00:00.800	1.318681	1.270330	1.298901
00:00:00.800	1.320147	1.290842	1.302564
00:00:00.800	1.312088	1.276923	1.309890
00:00:00.800	1.316484	1.262271	1.304029
00:00:00.800	1.306960	1.263004	1.300366
00:00:00.801	1.308425	1.269597	1.306227
00:00:00.801	1.298901	1.285714	1.312821
00:00:00.801	1.298901	1.320879	1.309890
00:00:00.802	1.304762	1.344322	1.309890
00:00:00.802	1.311355	1.340659	1.298168
00:00:00.803	1.309890	1.334066	1.312088
00:00:00.803	1.310623	1.330403	1.307692
00:00:00.803	1.312821	1.326740	1.304029
00:00:00.804	1.319414	1.319414	1.308425
00:00:00.804	1.320879	1.312821	1.307692
00:00:00.804	1.318681	1.306227	1.308425
00:00:00.805	1.323077	1.299634	1.308425
00:00:00.805	1.308425	1.292308	1.302564
00:00:00.805	1.306960	1.285714	1.296703
00:00:00.806	1.313553	1.301832	1.295238
00:00:00.806	1.304762	1.323810	1.309158
00:00:00.806	1.295971	1.332601	1.299634
00:00:00.807	1.296703	1.331136	1.306227
00:00:00.807	1.304029	1.314286	1.306227
00:00:00.808	1.296703	1.301832	1.304762
00:00:00.808	1.309890	1.300366	1.306227
00:00:00.808	1.315018	1.284249	1.300366
00:00:00.809	1.309890	1.284249	1.284982
00:00:00.809	1.307692	1.310623	1.306960
00:00:00.809	1.316484	1.323077	1.309890
00:00:00.810	1.309158	1.310623	1.306227
00:00:00.810	1.320879	1.308425	1.308425
00:00:00.810	1.315018	1.303297	1.309158
00:00:00.811	1.312821	1.295238	1.303297
00:00:00.811	1.323077	1.298168	1.309890
00:00:00.812	1.323077	1.284982	1.310623
00:00:00.812	1.307692	1.276190	1.292308
00:00:00.812	1.314286	1.306960	1.302564
00:00:00.813	1.304762	1.310623	1.290110
00:00:00.813	1.317216	1.298168	1.306227
00:00:00.813	1.307692	1.306960	1.301832
00:00:00.845	1.309890	1.324542	1.309158
00:00:00.846	1.305495	1.321612	1.303297
00:00:00.846	1.313553	1.321612	1.309158
00:00:00.847	1.317216	1.329670	1.315751
00:00:00.847	1.309158	1.327473	1.306227
00:00:00.847	1.311355	1.326007	1.309158
00:00:00.848	1.315751	1.315751	1.306227
00:00:00.848	1.312088	1.297436	1.306960
00:00:00.848	1.306227	1.282784	1.293773
00:00:00.849	1.324542	1.294505	1.304762
00:00:00.849	1.320879	1.290110	1.307692
00:00:00.849	1.323077	1.300366	1.308425
00:00:00.852	1.313553	1.298168	1.298901
00:00:00.852	1.307692	1.308425	1.301832
00:00:00.852	1.304762	1.313553	1.292308
00:00:00.852	1.300366	1.326740	1.293040
00:00:00.852	1.298168	1.340659	1.304762
00:00:00.852	1.299634	1.344322	1.312088
00:00:00.852	1.297436	1.322344	1.303297
00:00:00.852	1.297436	1.304029	1.298168
00:00:00.853	1.306960	1.303297	1.309890
00:00:00.853	1.309890	1.304762	1.310623
00:00:00.853	1.314286	1.276190	1.304029
00:00:00.854	1.308425	1.276190	1.306227
00:00:00.854	1.318681	1.282051	1.304029
00:00:00.854	1.313553	1.271062	1.300366
00:00:00.855	1.322344	1.263004	1.305495
00:00:00.855	1.315751	1.258608	1.295971
00:00:00.856	1.307692	1.295238	1.305495
00:00:00.856	1.316484	1.315018	1.305495
00:00:00.856	1.312821	1.316484	1.305495
00:00:00.857	1.307692	1.317216	1.304762
00:00:00.857	1.306227	1.343590	1.310623
00:00:00.857	1.306227	1.358242	1.304762
00:00:00.858	1.298901	1.342125	1.304762
00:00:00.858	1.305495	1.330403	1.312088
00:00:00.858	1.304762	1.304029	1.308425
00:00:00.859	1.310623	1.291575	1.304762
00:00:00.859	1.315018	1.292308	1.309890
00:00:00.859	1.316484	1.306960	1.306227
00:00:00.860	1.310623	1.319414	1.304029
00:00:00.860	1.313553	1.303297	1.296703
00:00:00.861	1.320879	1.298901	1.305495
00:00:00.861	1.320147	1.276190	1.310623
00:00:00.861	1.305495	1.263004	1.304762
00:00:00.862	1.313553	1.268132	1.299634
00:00:00.862	1.310623	1.257143	1.300366
00:00:00.862	1.304762	1.299634	1.302564
00:00:00.863	1.302564	1.325275	1.306960
00:00:00.863	1.305495	1.336264	1.304029
