timestamp	ch1	ch2	ch3
00:00:00.000	1.317949	1.295971	1.306227
00:00:00.000	1.315018	1.289377	1.305495
00:00:00.000	1.317216	1.312088	1.309890
00:00:00.001	1.310623	1.316484	1.304762
00:00:00.001	1.305495	1.324542	1.312088
00:00:00.002	1.306227	1.323077	1.302564
00:00:00.002	1.300366	1.320147	1.309158
00:00:00.002	1.299634	1.309890	1.307692
00:00:00.003	1.311355	1.312088	1.304762
00:00:00.003	1.317216	1.323810	1.306960
00:00:00.004	1.301832	1.321612	1.296703
00:00:00.004	1.321612	1.317216	1.307692
00:00:00.004	1.312088	1.300366	1.293773
00:00:00.004	1.319414	1.312821	1.310623
00:00:00.005	1.319414	1.304762	1.296703
00:00:00.005	1.312821	1.296703	1.300366
00:00:00.005	1.316484	1.304029	1.309890
00:00:00.006	1.311355	1.286447	1.293040
00:00:00.006	1.300366	1.289377	1.296703
00:00:00.007	1.315751	1.315751	1.296703
00:00:00.007	1.312088	1.317216	1.309158
00:00:00.007	1.304762	1.304029	1.304029
00:00:00.008	1.301099	1.307692	1.293040
00:00:00.008	1.303297	1.324542	1.305495
00:00:00.008	1.312088	1.305495	1.302564
00:00:00.009	1.310623	1.304029	1.304029
00:00:00.009	1.304029	1.308425	1.297436
00:00:00.009	1.313553	1.326007	1.310623
00:00:00.010	1.304762	1.312088	1.296703
00:00:00.010	1.313553	1.312821	1.304762
00:00:00.010	1.316484	1.303297	1.306227
00:00:00.011	1.317216	1.297436	1.308425
00:00:00.011	1.320147	1.310623	1.312821
00:00:00.012	1.320879	1.261538	1.307692
00:00:00.012	1.312821	1.253480	1.310623
00:00:00.012	1.320879	1.265934	1.309890
00:00:00.014	1.315018	1.281319	1.305495
00:00:00.014	1.300366	1.286447	1.297436
00:00:00.014	1.304762	1.322344	1.311355
00:00:00.015	1.303297	1.347253	1.309158
00:00:00.015	1.304762	1.344322	1.295971
00:00:00.015	1.296703	1.324542	1.298168
00:00:00.015	1.312821	1.319414	1.303297
00:00:00.015	1.316484	1.312088	1.311355
00:00:00.015	1.318681	1.306227	1.307692
00:00:00.016	1.300366	1.290110	1.303297
00:00:00.016	1.312821	1.285714	1.308425
00:00:00.018	1.323077	1.295971	1.303297
00:00:00.018	1.311355	1.294505	1.292308
00:00:00.018	1.326740	1.318681	1.312821
00:00:00.049	1.317949	1.308425	1.309890
00:00:00.050	1.312088	1.304029	1.311355
00:00:00.050	1.306227	1.300366	1.306960
00:00:00.051	1.304029	1.304762	1.304029
00:00:00.051	1.300366	1.303297	1.305495
00:00:00.051	1.300366	1.306960	1.300366
00:00:00.052	1.301099	1.283516	1.306227
00:00:00.052	1.306227	1.300366	1.297436
00:00:00.052	1.306960	1.298168	1.297436
00:00:00.053	1.319414	1.317216	1.317216
00:00:00.053	1.309890	1.315751	1.298168
00:00:00.053	1.326007	1.341392	1.315751
00:00:00.054	1.312088	1.328938	1.295971
00:00:00.054	1.315018	1.326007	1.300366
00:00:00.054	1.319414	1.309890	1.308425
00:00:00.055	1.309158	1.284982	1.298168
00:00:00.055	1.314286	1.287179	1.309158
00:00:00.056	1.312088	1.294505	1.308425
00:00:00.056	1.305495	1.294505	1.302564
00:00:00.056	1.298168	1.297436	1.293040
00:00:00.057	1.298901	1.319414	1.298901
00:00:00.057	1.312088	1.326007	1.305495
00:00:00.057	1.307692	1.311355	1.302564
00:00:00.058	1.305495	1.311355	1.305495
00:00:00.058	1.312088	1.309158	1.305495
00:00:00.058	1.309158	1.295971	1.298901
00:00:00.059	1.317949	1.284982	1.310623
00:00:00.059	1.307692	1.268864	1.298168
00:00:00.060	1.312088	1.304029	1.305495
00:00:00.060	1.315018	1.320879	1.302564
00:00:00.060	1.320879	1.306960	1.302564
00:00:00.061	1.321612	1.292308	1.303297
00:00:00.061	1.310623	1.309890	1.304762
00:00:00.061	1.320879	1.298901	1.308425
00:00:00.062	1.317216	1.294505	1.306960
00:00:00.062	1.317216	1.302564	1.306960
00:00:00.062	1.314286	1.309890	1.308425
00:00:00.063	1.304029	1.312821	1.303297
00:00:00.063	1.304029	1.315751	1.306960
00:00:00.063	1.307692	1.332601	1.307692
00:00:00.064	1.304762	1.344322	1.311355
00:00:00.064	1.305495	1.339194	1.306960
00:00:00.065	1.302564	1.323077	1.305495
00:00:00.065	1.296703	1.304029	1.300366
00:00:00.065	1.307692	1.284982	1.307692
00:00:00.066	1.316484	1.275458	1.301832
00:00:00.066	1.319414	1.276923	1.298168
00:00:00.066	1.314286	1.282784	1.306227
00:00:00.067	1.320879	1.287912	1.304029
00:00:00.067	1.314286	1.296703	1.311355
00:00:00.099	1.317949	1.299634	1.304029
00:00:00.100	1.317949	1.305495	1.304762
00:00:00.100	1.312821	1.315018	1.310623
00:00:00.100	1.308425	1.319414	1.303297
00:00:00.101	1.300366	1.323810	1.307692
00:00:00.101	1.299634	1.328205	1.303297
00:00:00.101	1.301832	1.327473	1.303297
00:00:00.102	1.298901	1.327473	1.309158
00:00:00.102	1.305495	1.325275	1.307692
00:00:00.102	1.300366	1.297436	1.304029
00:00:00.103	1.302564	1.304029	1.300366
00:00:00.103	1.310623	1.305495	1.300366
00:00:00.104	1.309158	1.287179	1.300366
00:00:00.104	1.317949	1.284982	1.309890
00:00:00.104	1.317216	1.288645	1.304762
00:00:00.105	1.319414	1.290110	1.305495
00:00:00.105	1.318681	1.285714	1.308425
00:00:00.105	1.306960	1.293040	1.309890
00:00:00.106	1.309890	1.309158	1.302564
00:00:00.106	1.303297	1.312821	1.300366
00:00:00.106	1.308425	1.334799	1.306227
00:00:00.107	1.313553	1.331136	1.304762
00:00:00.107	1.306960	1.336996	1.305495
00:00:00.107	1.298901	1.317949	1.298901
00:00:00.110	1.300366	1.295971	1.298168
00:00:00.110	1.304762	1.294505	1.302564
00:00:00.110	1.307692	1.309158	1.309158
00:00:00.110	1.313553	1.322344	1.314286
00:00:00.110	1.312821	1.309890	1.304029
00:00:00.111	1.315751	1.309158	1.304762
00:00:00.111	1.320147	1.340659	1.308425
00:00:00.111	1.312088	1.320879	1.294505
00:00:00.111	1.322344	1.303297	1.306960
00:00:00.111	1.322344	1.294505	1.309158
00:00:00.111	1.313553	1.287912	1.310623
00:00:00.112	1.312088	1.277656	1.304029
00:00:00.112	1.300366	1.285714	1.306960
00:00:00.112	1.308425	1.293040	1.303297
00:00:00.114	1.309890	1.315018	1.308425
00:00:00.114	1.309158	1.333333	1.306960
00:00:00.114	1.300366	1.349451	1.307692
00:00:00.114	1.306960	1.356044	1.310623
00:00:00.114	1.293773	1.345788	1.297436
00:00:00.115	1.315018	1.324542	1.295971
00:00:00.115	1.313553	1.298168	1.309158
00:00:00.115	1.312088	1.258608	1.294505
00:00:00.116	1.318681	1.266667	1.314286
00:00:00.116	1.317216	1.289377	1.303297
00:00:00.116	1.324542	1.284982	1.302564
00:00:00.117	1.325275	1.270330	1.305495
00:00:00.149	1.313553	1.266667	1.306227
00:00:00.149	1.315751	1.279853	1.303297
00:00:00.150	1.311355	1.293773	1.306227
00:00:00.150	1.311355	1.313553	1.300366
00:00:00.150	1.312088	1.340659	1.309158
00:00:00.151	1.306960	1.342857	1.310623
00:00:00.151	1.297436	1.323810	1.303297
00:00:00.151	1.305495	1.328938	1.310623
00:00:00.152	1.298168	1.325275	1.302564
00:00:00.152	1.312088	1.332601	1.311355
00:00:00.153	1.314286	1.315018	1.306960
00:00:00.153	1.316484	1.293040	1.306960
00:00:00.153	1.323077	1.276923	1.306227
00:00:00.154	1.328205	1.276923	1.306227
00:00:00.154	1.329670	1.280586	1.306960
00:00:00.154	1.319414	1.281319	1.304029
00:00:00.155	1.305495	1.279121	1.300366
00:00:00.155	1.321612	1.294505	1.308425
00:00:00.155	1.321612	1.306227	1.308425
00:00:00.156	1.315018	1.307692	1.300366
00:00:00.156	1.306227	1.323810	1.309158
00:00:00.156	1.303297	1.339194	1.304029
00:00:00.157	1.302564	1.348718	1.305495
00:00:00.157	1.304029	1.347253	1.307692
00:00:00.158	1.301832	1.339194	1.308425
00:00:00.158	1.298901	1.313553	1.306960
00:00:00.158	1.295238	1.293773	1.295238
00:00:00.159	1.298168	1.308425	1.309890
00:00:00.159	1.319414	1.326740	1.307692
00:00:00.159	1.320147	1.309158	1.308425
00:00:00.160	1.322344	1.300366	1.312821
00:00:00.161	1.307692	1.280586	1.300366
00:00:00.161	1.317216	1.291575	1.310623
00:00:00.161	1.315018	1.293040	1.311355
00:00:00.161	1.322344	1.297436	1.309890
00:00:00.161	1.311355	1.296703	1.312088
00:00:00.162	1.303297	1.304029	1.306960
00:00:00.162	1.300366	1.309890	1.295238
00:00:00.163	1.306960	1.323077	1.311355
00:00:00.163	1.300366	1.323077	1.310623
00:00:00.163	1.300366	1.315751	1.306960
00:00:00.164	1.303297	1.298901	1.309158
00:00:00.164	1.295971	1.289377	1.305495
00:00:00.164	1.296703	1.289377	1.293040
00:00:00.165	1.305495	1.279853	1.304762
00:00:00.165	1.314286	1.280586	1.287912
00:00:00.165	1.318681	1.302564	1.305495
00:00:00.166	1.309158	1.326740	1.300366
00:00:00.166	1.309158	1.339194	1.312821
00:00:00.167	1.306227	1.326740	1.298168
00:00:00.199	1.323810	1.346520	1.312821
00:00:00.199	1.308425	1.330403	1.302564
00:00:00.199	1.302564	1.296703	1.296703
00:00:00.200	1.309890	1.279121	1.300366
00:00:00.200	1.308425	1.271062	1.306227
00:00:00.200	1.304762	1.279853	1.300366
00:00:00.201	1.293040	1.287912	1.299634
00:00:00.201	1.296703	1.276923	1.298168
00:00:00.202	1.290110	1.278388	1.296703
00:00:00.202	1.309890	1.311355	1.308425
00:00:00.202	1.309158	1.313553	1.296703
00:00:00.203	1.317949	1.312088	1.314286
00:00:00.203	1.314286	1.280586	1.315018
00:00:00.203	1.318681	1.288645	1.312821
00:00:00.204	1.323810	1.290842	1.312821
00:00:00.204	1.310623	1.273260	1.300366
00:00:00.204	1.320147	1.291575	1.306227
00:00:00.205	1.323077	1.309158	1.312821
00:00:00.205	1.319414	1.313553	1.312821
00:00:00.205	1.312088	1.324542	1.309158
00:00:00.208	1.309890	1.326740	1.302564
00:00:00.208	1.308425	1.335531	1.307692
00:00:00.208	1.299634	1.326007	1.293040
00:00:00.208	1.303297	1.336996	1.295971
00:00:00.208	1.306960	1.345055	1.314286
00:00:00.208	1.302564	1.350916	1.302564
00:00:00.208	1.292308	1.346520	1.304762
00:00:00.208	1.305495	1.353114	1.307692
00:00:00.210	1.304762	1.311355	1.297436
00:00:00.210	1.323810	1.295238	1.306227
00:00:00.210	1.315751	1.267399	1.298901
00:00:00.210	1.320147	1.257143	1.314286
00:00:00.210	1.318681	1.258608	1.309158
00:00:00.211	1.314286	1.258608	1.294505
00:00:00.211	1.312088	1.263004	1.302564
00:00:00.211	1.317949	1.295238	1.302564
00:00:00.212	1.306227	1.298901	1.294505
00:00:00.212	1.300366	1.306960	1.300366
00:00:00.213	1.308425	1.321612	1.305495
00:00:00.213	1.294505	1.316484	1.298901
00:00:00.213	1.303297	1.331136	1.298901
00:00:00.213	1.307692	1.336264	1.306227
00:00:00.214	1.300366	1.322344	1.297436
00:00:00.214	1.312088	1.322344	1.311355
00:00:00.214	1.313553	1.311355	1.304029
00:00:00.215	1.319414	1.302564	1.309158
00:00:00.215	1.320879	1.301832	1.305495
00:00:00.216	1.318681	1.298901	1.302564
00:00:00.216	1.326740	1.310623	1.312821
00:00:00.216	1.323077	1.312088	1.309890
00:00:00.248	1.312088	1.312821	1.305495
00:00:00.249	1.320147	1.311355	1.304029
00:00:00.249	1.306960	1.305495	1.309890
00:00:00.249	1.315018	1.304029	1.304029
00:00:00.250	1.295971	1.305495	1.298168
00:00:00.250	1.302564	1.309890	1.304029
00:00:00.251	1.303297	1.298168	1.304762
00:00:00.251	1.304762	1.310623	1.306227
00:00:00.251	1.298901	1.320879	1.295238
00:00:00.252	1.306227	1.335531	1.300366
00:00:00.252	1.295238	1.315018	1.295971
00:00:00.252	1.310623	1.320879	1.315751
00:00:00.253	1.306227	1.288645	1.300366
00:00:00.253	1.320879	1.292308	1.309890
00:00:00.253	1.315751	1.284982	1.300366
00:00:00.254	1.316484	1.283516	1.304029
00:00:00.254	1.318681	1.273993	1.311355
00:00:00.255	1.321612	1.260073	1.309890
00:00:00.255	1.312088	1.277656	1.300366
00:00:00.255	1.312821	1.306227	1.304029
00:00:00.256	1.306227	1.317216	1.308425
00:00:00.256	1.307692	1.315751	1.306960
00:00:00.256	1.304029	1.320879	1.305495
00:00:00.257	1.304762	1.334066	1.303297
00:00:00.257	1.301099	1.326740	1.306960
00:00:00.257	1.304029	1.325275	1.307692
00:00:00.258	1.297436	1.326007	1.311355
00:00:00.258	1.312821	1.315751	1.308425
00:00:00.258	1.312088	1.312821	1.304762
00:00:00.259	1.318681	1.304029	1.303297
00:00:00.259	1.321612	1.308425	1.309158
00:00:00.260	1.323810	1.302564	1.311355
00:00:00.260	1.323810	1.301832	1.301832
00:00:00.260	1.309890	1.295971	1.306960
00:00:00.261	1.317216	1.301832	1.305495
00:00:00.261	1.317216	1.311355	1.305495
00:00:00.261	1.319414	1.329670	1.311355
00:00:00.262	1.311355	1.320879	1.300366
00:00:00.262	1.299634	1.315018	1.302564
00:00:00.262	1.303297	1.317949	1.300366
00:00:00.263	1.309158	1.310623	1.299634
00:00:00.263	1.306227	1.312088	1.304762
00:00:00.263	1.304762	1.307692	1.306960
00:00:00.264	1.296703	1.299634	1.295971
00:00:00.264	1.307692	1.346520	1.311355
00:00:00.265	1.310623	1.329670	1.308425
00:00:00.265	1.306227	1.291575	1.303297
00:00:00.265	1.309158	1.274725	1.298901
00:00:00.266	1.323810	1.276190	1.305495
00:00:00.266	1.326007	1.273993	1.312088
00:00:00.298	1.323810	1.279121	1.309158
00:00:00.299	1.317949	1.266667	1.304762
00:00:00.299	1.317949	1.287912	1.295971
00:00:00.299	1.316484	1.321612	1.309158
00:00:00.300	1.313553	1.335531	1.311355
00:00:00.300	1.304762	1.330403	1.307692
00:00:00.300	1.295971	1.320147	1.295238
00:00:00.302	1.302564	1.346520	1.309890
00:00:00.302	1.302564	1.353114	1.301832
00:00:00.302	1.302564	1.342857	1.312088
00:00:00.303	1.312088	1.315751	1.304762
00:00:00.303	1.312088	1.285714	1.309890
00:00:00.303	1.318681	1.268132	1.307692
00:00:00.304	1.315751	1.269597	1.300366
00:00:00.304	1.317216	1.279121	1.305495
00:00:00.304	1.323810	1.285714	1.308425
00:00:00.304	1.320147	1.284982	1.301832
00:00:00.304	1.315751	1.299634	1.303297
00:00:00.307	1.313553	1.302564	1.303297
00:00:00.307	1.302564	1.294505	1.298168
00:00:00.307	1.315751	1.296703	1.303297
00:00:00.307	1.310623	1.320879	1.311355
00:00:00.307	1.305495	1.336264	1.312088
00:00:00.307	1.305495	1.339194	1.309158
00:00:00.307	1.300366	1.330403	1.303297
00:00:00.307	1.312088	1.336264	1.315751
00:00:00.307	1.306960	1.348718	1.311355
00:00:00.308	1.319414	1.390476	1.305495
00:00:00.308	1.308425	1.367766	1.292308
00:00:00.309	1.312088	1.358242	1.306227
00:00:00.309	1.311355	1.341392	1.298901
00:00:00.309	1.315018	1.351648	1.305495
00:00:00.310	1.323810	1.393407	1.312821
00:00:00.310	1.306960	1.296703	1.306227
00:00:00.310	1.309890	1.203663	1.300366
00:00:00.311	1.313553	1.149451	1.300366
00:00:00.311	1.312088	1.142125	1.298168
00:00:00.311	1.304762	1.156044	1.300366
00:00:00.312	1.300366	1.208059	1.298901
00:00:00.312	1.304029	1.221978	1.299634
00:00:00.312	1.300366	1.249817	1.308425
00:00:00.313	1.298168	1.297436	1.290842
00:00:00.313	1.292308	1.348718	1.304762
00:00:00.314	1.309890	1.372894	1.303297
00:00:00.314	1.302564	1.367766	1.299634
00:00:00.314	1.312821	1.363370	1.308425
00:00:00.315	1.327473	1.345055	1.313553
00:00:00.315	1.329670	1.335531	1.311355
00:00:00.315	1.334799	1.320879	1.314286
00:00:00.316	1.329670	1.312821	1.301832
00:00:00.348	1.336264	1.342125	1.320147
00:00:00.348	1.331136	1.456410	1.320879
00:00:00.349	1.319414	1.602930	1.336264
00:00:00.349	1.317949	1.522344	1.332601
00:00:00.349	1.306960	1.394872	1.305495
00:00:00.350	1.307692	1.284249	1.309890
00:00:00.350	1.299634	1.178022	1.306227
00:00:00.350	1.285714	1.123077	1.300366
00:00:00.351	1.286447	1.016117	1.291575
00:00:00.351	1.269597	1.028571	1.265201
00:00:00.351	1.270330	1.252747	1.281319
00:00:00.352	1.279121	1.311355	1.290842
00:00:00.352	1.304029	1.325275	1.291575
00:00:00.353	1.323077	1.400000	1.308425
00:00:00.353	1.321612	1.466667	1.315018
00:00:00.353	1.315751	1.434432	1.315751
00:00:00.354	1.323810	1.399267	1.319414
00:00:00.354	1.330403	1.360440	1.323810
00:00:00.354	1.339194	1.326740	1.320147
00:00:00.355	1.336264	1.231502	1.308425
00:00:00.355	1.317216	1.147985	1.303297
00:00:00.355	1.306960	1.123077	1.282784
00:00:00.356	1.293773	1.189011	1.293773
00:00:00.356	1.293773	1.258608	1.306960
00:00:00.356	1.313553	1.364103	1.317949
00:00:00.357	1.312088	1.400000	1.309890
00:00:00.357	1.316484	1.424176	1.327473
00:00:00.358	1.328938	1.391941	1.326007
00:00:00.358	1.329670	1.298901	1.304029
00:00:00.358	1.331136	1.318681	1.304029
00:00:00.359	1.321612	1.402198	1.306960
00:00:00.359	1.304029	1.350916	1.276923
00:00:00.359	1.300366	1.375824	1.287179
00:00:00.360	1.272527	1.267399	1.289377
00:00:00.360	1.268132	1.260806	1.306960
00:00:00.360	1.290842	1.224908	1.320879
00:00:00.361	1.300366	1.203663	1.312821
00:00:00.361	1.298901	1.220513	1.305495
00:00:00.362	1.303297	1.331136	1.295971
00:00:00.362	1.315751	1.441026	1.308425
00:00:00.362	1.303297	1.443956	1.311355
00:00:00.363	1.300366	1.446886	1.305495
00:00:00.363	1.308425	1.501099	1.310623
00:00:00.363	1.309158	1.476190	1.312088
00:00:00.364	1.309158	1.427106	1.300366
00:00:00.365	1.312088	1.381685	1.287912
00:00:00.365	1.319414	1.273260	1.301832
00:00:00.365	1.318681	1.046154	1.297436
00:00:00.365	1.328205	0.864469	1.289377
00:00:00.365	1.314286	0.782418	1.276190
00:00:00.400	1.328205	0.816117	1.280586
00:00:00.400	1.317216	1.058608	1.300366
00:00:00.400	1.325275	1.315751	1.306227
00:00:00.400	1.315018	1.410989	1.312821
00:00:00.400	1.310623	1.430769	1.314286
00:00:00.400	1.326740	1.494505	1.311355
00:00:00.400	1.337729	1.529670	1.334066
00:00:00.400	1.317949	1.487912	1.309890
00:00:00.400	1.309158	1.440293	1.310623
00:00:00.403	1.293773	1.416117	1.300366
00:00:00.403	1.284982	1.376557	1.296703
00:00:00.403	1.295971	1.309158	1.295971
00:00:00.403	1.281319	1.272527	1.288645
00:00:00.403	1.305495	1.279853	1.309158
00:00:00.403	1.309890	1.306960	1.304762
00:00:00.403	1.312088	1.320879	1.298168
00:00:00.403	1.318681	1.356777	1.309158
00:00:00.404	1.298901	1.317949	1.304762
00:00:00.404	1.317949	1.299634	1.315751
00:00:00.404	1.317949	1.290110	1.293773
00:00:00.405	1.323077	1.323810	1.312821
00:00:00.405	1.315018	1.315751	1.314286
00:00:00.406	1.318681	1.322344	1.309158
00:00:00.406	1.314286	1.354579	1.308425
00:00:00.406	1.322344	1.369231	1.313553
00:00:00.407	1.309158	1.359707	1.304029
00:00:00.407	1.300366	1.347253	1.302564
00:00:00.407	1.304029	1.326007	1.310623
00:00:00.408	1.307692	1.307692	1.305495
00:00:00.408	1.317216	1.314286	1.306227
00:00:00.408	1.304029	1.297436	1.312088
00:00:00.409	1.314286	1.300366	1.312821
00:00:00.409	1.310623	1.282051	1.302564
00:00:00.409	1.317216	1.257875	1.303297
00:00:00.410	1.323810	1.285714	1.300366
00:00:00.410	1.320147	1.281319	1.293773
00:00:00.411	1.317949	1.279853	1.312088
00:00:00.411	1.308425	1.294505	1.312088
00:00:00.411	1.306960	1.309890	1.306227
00:00:00.412	1.301832	1.317216	1.309890
00:00:00.412	1.309158	1.301832	1.306960
00:00:00.412	1.298901	1.309890	1.307692
00:00:00.413	1.307692	1.326740	1.310623
00:00:00.413	1.293040	1.317949	1.294505
00:00:00.413	1.312088	1.342857	1.302564
00:00:00.414	1.313553	1.367766	1.310623
00:00:00.414	1.321612	1.375092	1.317949
00:00:00.414	1.324542	1.364103	1.309890
00:00:00.415	1.319414	1.315018	1.307692
00:00:00.415	1.328205	1.325275	1.312821
00:00:00.447	1.318681	1.331136	1.312821
00:00:00.448	1.314286	1.288645	1.309158
00:00:00.448	1.315018	1.219780	1.293040
00:00:00.448	1.307692	1.156777	1.288645
00:00:00.449	1.323810	1.208059	1.295238
00:00:00.449	1.298901	1.227106	1.290110
00:00:00.450	1.295971	1.233700	1.301832
00:00:00.450	1.297436	1.291575	1.306960
00:00:00.450	1.296703	1.359707	1.304029
00:00:00.451	1.293773	1.457875	1.306960
00:00:00.451	1.292308	1.446154	1.306227
00:00:00.451	1.309158	1.334799	1.310623
00:00:00.452	1.320879	1.246886	1.305495
00:00:00.452	1.312088	1.219780	1.306227
00:00:00.452	1.306960	1.200733	1.300366
00:00:00.454	1.304762	1.169231	1.302564
00:00:00.454	1.306227	1.293040	1.304762
00:00:00.454	1.326740	1.435897	1.310623
00:00:00.454	1.325275	1.456410	1.314286
00:00:00.454	1.323810	1.412454	1.316484
00:00:00.455	1.323810	1.339194	1.309890
00:00:00.455	1.325275	1.304762	1.316484
00:00:00.455	1.313553	1.320879	1.304029
00:00:00.456	1.304762	1.243223	1.298901
00:00:00.456	1.300366	1.274725	1.298168
00:00:00.456	1.312088	1.263004	1.299634
00:00:00.457	1.305495	1.284982	1.300366
00:00:00.457	1.301099	1.288645	1.309890
00:00:00.457	1.302564	1.258608	1.303297
00:00:00.458	1.301832	1.245421	1.304029
00:00:00.458	1.315018	1.238828	1.311355
00:00:00.458	1.310623	1.266667	1.305495
00:00:00.459	1.321612	1.284982	1.318681
00:00:00.459	1.317216	1.284249	1.309158
00:00:00.460	1.317216	1.337729	1.308425
00:00:00.460	1.323077	1.347253	1.300366
00:00:00.460	1.304762	1.376557	1.299634
00:00:00.463	1.323077	1.396337	1.310623
00:00:00.463	1.315018	1.362637	1.295238
00:00:00.463	1.326740	1.326740	1.304762
00:00:00.463	1.314286	1.298168	1.300366
00:00:00.463	1.310623	1.265934	1.291575
00:00:00.463	1.317949	1.289377	1.304762
00:00:00.464	1.306227	1.328938	1.301832
00:00:00.464	1.308425	1.346520	1.306960
00:00:00.464	1.297436	1.328938	1.309890
00:00:00.464	1.287912	1.312821	1.307692
00:00:00.464	1.282051	1.290842	1.299634
00:00:00.467	1.304029	1.304762	1.308425
00:00:00.467	1.309158	1.329670	1.311355
00:00:00.499	1.305495	1.348718	1.302564
00:00:00.499	1.315018	1.330403	1.309158
00:00:00.499	1.310623	1.287179	1.311355
00:00:00.499	1.320147	1.285714	1.309890
00:00:00.499	1.317949	1.276923	1.304029
00:00:00.499	1.313553	1.265201	1.295238
00:00:00.499	1.313553	1.298901	1.300366
00:00:00.500	1.309158	1.319414	1.306227
00:00:00.501	1.288645	1.315018	1.300366
00:00:00.501	1.301832	1.320147	1.306227
00:00:00.501	1.298901	1.315751	1.311355
00:00:00.501	1.312088	1.313553	1.312821
00:00:00.501	1.312821	1.308425	1.308425
00:00:00.502	1.306227	1.289377	1.299634
00:00:00.502	1.327473	1.282051	1.293040
00:00:00.502	1.339194	1.313553	1.305495
00:00:00.503	1.328205	1.322344	1.304762
00:00:00.503	1.316484	1.312821	1.312088
00:00:00.504	1.306227	1.319414	1.317216
00:00:00.504	1.306227	1.307692	1.309890
00:00:00.504	1.292308	1.313553	1.308425
00:00:00.505	1.317949	1.312088	1.306227
00:00:00.506	1.309158	1.300366	1.300366
00:00:00.506	1.310623	1.295238	1.300366
00:00:00.506	1.305495	1.304029	1.306227
00:00:00.506	1.303297	1.306960	1.293040
00:00:00.506	1.306960	1.320147	1.308425
00:00:00.507	1.308425	1.323077	1.306960
00:00:00.507	1.312088	1.350916	1.312821
00:00:00.507	1.312821	1.367033	1.303297
00:00:00.508	1.312821	1.348718	1.299634
00:00:00.508	1.316484	1.325275	1.304029
00:00:00.509	1.318681	1.302564	1.290842
00:00:00.509	1.318681	1.270330	1.291575
00:00:00.509	1.303297	1.184615	1.280586
00:00:00.510	1.312088	1.165568	1.290842
00:00:00.510	1.311355	1.183150	1.307692
00:00:00.510	1.317216	1.255678	1.314286
00:00:00.511	1.309158	1.322344	1.312088
00:00:00.511	1.310623	1.393407	1.334799
00:00:00.511	1.302564	1.412454	1.318681
00:00:00.512	1.299634	1.414652	1.319414
00:00:00.512	1.298168	1.402930	1.311355
00:00:00.513	1.295238	1.342857	1.293040
00:00:00.513	1.312088	1.273260	1.303297
00:00:00.513	1.308425	1.238095	1.296703
00:00:00.514	1.313553	1.240293	1.301832
00:00:00.514	1.307692	1.265201	1.296703
00:00:00.514	1.311355	1.266667	1.302564
00:00:00.515	1.317949	1.295238	1.303297
00:00:00.547	1.316484	1.336264	1.299634
00:00:00.547	1.323810	1.364103	1.312088
00:00:00.548	1.326740	1.389744	1.310623
00:00:00.548	1.312088	1.394139	1.309890
00:00:00.548	1.320879	1.380220	1.306960
00:00:00.549	1.303297	1.315018	1.298168
00:00:00.549	1.312088	1.223443	1.295238
00:00:00.549	1.311355	1.227839	1.298168
00:00:00.550	1.310623	1.242491	1.304029
00:00:00.550	1.305495	1.253480	1.309890
00:00:00.550	1.302564	1.289377	1.321612
00:00:00.551	1.284249	1.293773	1.311355
00:00:00.551	1.287179	1.349451	1.309890
00:00:00.552	1.301832	1.309158	1.298168
00:00:00.552	1.305495	1.344322	1.283516
00:00:00.552	1.312088	1.334066	1.307692
00:00:00.553	1.315018	1.246154	1.304029
00:00:00.553	1.302564	1.221978	1.306960
00:00:00.553	1.305495	1.241758	1.315751
00:00:00.554	1.306960	1.352381	1.307692
00:00:00.554	1.300366	1.550916	1.328938
00:00:00.554	1.298901	1.497436	1.307692
00:00:00.555	1.326007	1.371429	1.317216
00:00:00.555	1.317216	1.219780	1.300366
00:00:00.555	1.319414	1.141392	1.300366
00:00:00.556	1.306227	1.197802	1.295971
00:00:00.556	1.300366	1.200000	1.293040
00:00:00.557	1.290110	1.273260	1.298168
00:00:00.557	1.309890	1.319414	1.305495
00:00:00.560	1.323077	1.313553	1.302564
00:00:00.560	1.328205	1.254945	1.300366
00:00:00.560	1.339194	1.232234	1.298168
00:00:00.560	1.328938	1.263004	1.304029
00:00:00.560	1.326740	1.329670	1.312821
00:00:00.560	1.317949	1.345055	1.306960
00:00:00.560	1.312088	1.344322	1.300366
00:00:00.560	1.321612	1.353846	1.317949
00:00:00.560	1.309890	1.335531	1.309158
00:00:00.560	1.312088	1.341392	1.304762
00:00:00.563	1.298901	1.334066	1.306960
00:00:00.563	1.306960	1.356044	1.310623
00:00:00.563	1.311355	1.430769	1.314286
00:00:00.563	1.300366	1.425641	1.294505
00:00:00.563	1.305495	1.397070	1.308425
00:00:00.563	1.309158	1.354579	1.310623
00:00:00.563	1.306960	1.280586	1.303297
00:00:00.563	1.302564	1.207326	1.305495
00:00:00.564	1.313553	1.237363	1.309158
00:00:00.564	1.307692	1.204396	1.290842
00:00:00.564	1.320879	1.269597	1.304762
00:00:00.597	1.316484	1.282051	1.305495
00:00:00.597	1.320879	1.265201	1.306227
00:00:00.597	1.327473	1.266667	1.306227
00:00:00.598	1.318681	1.248352	1.305495
00:00:00.598	1.313553	1.261538	1.300366
00:00:00.598	1.300366	1.317949	1.305495
00:00:00.599	1.297436	1.349451	1.296703
00:00:00.599	1.300366	1.369963	1.307692
00:00:00.599	1.293773	1.375092	1.300366
00:00:00.600	1.279853	1.390476	1.294505
00:00:00.600	1.304762	1.405861	1.309890
00:00:00.601	1.313553	1.389011	1.300366
00:00:00.601	1.316484	1.473260	1.304762
00:00:00.601	1.312088	1.430037	1.298168
00:00:00.602	1.322344	1.327473	1.295238
00:00:00.602	1.339927	1.232234	1.316484
00:00:00.602	1.328938	1.150183	1.312821
00:00:00.603	1.308425	1.031502	1.293773
00:00:00.603	1.317216	0.988278	1.303297
00:00:00.603	1.320879	1.163370	1.311355
00:00:00.604	1.319414	1.315018	1.315751
00:00:00.604	1.314286	1.394139	1.312088
00:00:00.604	1.316484	1.477656	1.312088
00:00:00.605	1.309890	1.513553	1.319414
00:00:00.605	1.310623	1.564835	1.328938
00:00:00.606	1.313553	1.487179	1.314286
00:00:00.606	1.306960	1.337729	1.309158
00:00:00.606	1.284249	1.172161	1.306960
00:00:00.607	1.284982	1.058608	1.286447
00:00:00.607	1.291575	1.001465	1.289377
00:00:00.607	1.289377	1.049817	1.284249
00:00:00.608	1.300366	1.223443	1.293040
00:00:00.608	1.334066	1.386813	1.300366
00:00:00.608	1.334799	1.444689	1.298901
00:00:00.609	1.355311	1.435165	1.312821
00:00:00.609	1.347985	1.375092	1.307692
00:00:00.610	1.333333	1.337729	1.314286
00:00:00.610	1.314286	1.285714	1.309890
00:00:00.610	1.280586	1.238828	1.293040
00:00:00.611	1.271062	1.265934	1.298168
00:00:00.611	1.282784	1.331136	1.301832
00:00:00.611	1.280586	1.359707	1.306227
00:00:00.612	1.284249	1.364835	1.309890
00:00:00.612	1.285714	1.352381	1.298168
00:00:00.612	1.312088	1.368498	1.316484
00:00:00.613	1.314286	1.347253	1.309890
00:00:00.613	1.325275	1.336264	1.314286
00:00:00.613	1.321612	1.312088	1.298901
00:00:00.614	1.325275	1.301832	1.305495
00:00:00.614	1.326007	1.296703	1.307692
00:00:00.646	1.326007	1.287179	1.308425
00:00:00.647	1.324542	1.289377	1.306960
00:00:00.647	1.326740	1.300366	1.312088
00:00:00.647	1.323810	1.300366	1.306227
00:00:00.648	1.316484	1.308425	1.300366
00:00:00.648	1.323077	1.314286	1.304762
00:00:00.648	1.313553	1.314286	1.300366
00:00:00.649	1.307692	1.319414	1.302564
00:00:00.649	1.306960	1.326740	1.303297
00:00:00.650	1.301832	1.320147	1.300366
00:00:00.650	1.304029	1.322344	1.303297
00:00:00.650	1.301099	1.309890	1.304762
00:00:00.651	1.304762	1.298168	1.298901
00:00:00.651	1.304762	1.292308	1.306227
00:00:00.651	1.317216	1.298901	1.309890
00:00:00.652	1.311355	1.304029	1.288645
00:00:00.652	1.317216	1.331136	1.293040
00:00:00.652	1.326007	1.314286	1.290842
00:00:00.654	1.329670	1.316484	1.320147
00:00:00.654	1.318681	1.296703	1.307692
00:00:00.654	1.321612	1.312088	1.320879
00:00:00.654	1.320147	1.306227	1.323810
00:00:00.654	1.305495	1.263736	1.295971
00:00:00.656	1.301099	1.258608	1.300366
00:00:00.656	1.310623	1.260073	1.306227
00:00:00.656	1.315751	1.256410	1.306227
00:00:00.656	1.312088	1.320147	1.291575
00:00:00.656	1.293040	1.346520	1.300366
00:00:00.656	1.281319	1.319414	1.292308
00:00:00.659	1.291575	1.308425	1.306960
00:00:00.659	1.277656	1.311355	1.302564
00:00:00.659	1.303297	1.289377	1.304029
00:00:00.659	1.313553	1.276923	1.309890
00:00:00.659	1.312088	1.301099	1.297436
00:00:00.659	1.323810	1.315751	1.306960
00:00:00.659	1.326007	1.312821	1.306960
00:00:00.659	1.331868	1.318681	1.314286
00:00:00.660	1.315751	1.305495	1.307692
00:00:00.660	1.307692	1.308425	1.306227
00:00:00.660	1.314286	1.354579	1.308425
00:00:00.661	1.312088	1.391209	1.307692
00:00:00.661	1.309890	1.374359	1.308425
00:00:00.661	1.304762	1.325275	1.303297
00:00:00.663	1.300366	1.247619	1.302564
00:00:00.663	1.295238	1.200000	1.296703
00:00:00.663	1.308425	1.190476	1.300366
00:00:00.663	1.305495	1.262271	1.304762
00:00:00.663	1.315018	1.324542	1.315018
00:00:00.663	1.303297	1.361905	1.306227
00:00:00.664	1.313553	1.376557	1.303297
00:00:00.696	1.328938	1.358242	1.316484
00:00:00.696	1.320879	1.314286	1.304029
00:00:00.697	1.326007	1.328205	1.304029
00:00:00.697	1.318681	1.341392	1.304029
00:00:00.697	1.331868	1.302564	1.304762
00:00:00.698	1.323810	1.265934	1.305495
00:00:00.698	1.315751	1.296703	1.302564
00:00:00.699	1.298901	1.287912	1.300366
00:00:00.699	1.297436	1.260073	1.303297
00:00:00.699	1.277656	1.243956	1.289377
00:00:00.700	1.288645	1.275458	1.305495
00:00:00.700	1.302564	1.304029	1.300366
00:00:00.700	1.311355	1.311355	1.309890
00:00:00.701	1.318681	1.309890	1.317949
00:00:00.701	1.304762	1.306227	1.306960
00:00:00.701	1.322344	1.334799	1.309158
00:00:00.702	1.323810	1.349451	1.309158
00:00:00.702	1.332601	1.339927	1.313553
00:00:00.702	1.336264	1.335531	1.312088
00:00:00.703	1.325275	1.331868	1.302564
00:00:00.703	1.325275	1.360440	1.296703
00:00:00.704	1.302564	1.330403	1.293040
00:00:00.704	1.306227	1.284249	1.299634
00:00:00.704	1.305495	1.298168	1.303297
00:00:00.705	1.294505	1.296703	1.298168
00:00:00.705	1.296703	1.257143	1.295971
00:00:00.705	1.292308	1.200733	1.293773
00:00:00.706	1.284249	1.295238	1.309890
00:00:00.706	1.266667	1.338462	1.312821
00:00:00.706	1.287912	1.354579	1.306227
00:00:00.707	1.298901	1.349451	1.309890
00:00:00.707	1.312088	1.327473	1.312821
00:00:00.707	1.307692	1.285714	1.298168
00:00:00.708	1.308425	1.304762	1.300366
00:00:00.708	1.336996	1.317216	1.318681
00:00:00.709	1.330403	1.290842	1.315018
00:00:00.709	1.331868	1.308425	1.311355
00:00:00.709	1.329670	1.458608	1.302564
00:00:00.710	1.342125	1.595604	1.308425
00:00:00.710	1.338462	1.482051	1.295971
00:00:00.710	1.334066	1.301832	1.299634
00:00:00.711	1.317949	1.150183	1.302564
00:00:00.711	1.315018	1.128205	1.309158
00:00:00.711	1.298168	0.961905	1.304029
00:00:00.712	1.295238	1.023443	1.304762
00:00:00.712	1.294505	1.235897	1.311355
00:00:00.713	1.284982	1.324542	1.310623
00:00:00.713	1.284249	1.283516	1.310623
00:00:00.713	1.271795	1.281319	1.294505
00:00:00.714	1.293773	1.346520	1.305495
00:00:00.747	1.301832	1.347985	1.312821
00:00:00.747	1.295238	1.331136	1.306227
00:00:00.747	1.305495	1.342857	1.310623
00:00:00.747	1.306960	1.344322	1.300366
00:00:00.747	1.321612	1.387546	1.312088
00:00:00.749	1.326740	1.419048	1.306227
00:00:00.749	1.320879	1.407326	1.304029
00:00:00.749	1.333333	1.361905	1.297436
00:00:00.750	1.333333	1.328938	1.304762
00:00:00.750	1.323810	1.326740	1.299634
00:00:00.750	1.328205	1.353846	1.304029
00:00:00.752	1.331136	1.378022	1.306960
00:00:00.752	1.314286	1.300366	1.293040
00:00:00.752	1.315018	1.258608	1.293773
00:00:00.752	1.312821	1.202198	1.293040
00:00:00.752	1.323810	1.178755	1.295238
00:00:00.752	1.306227	1.203663	1.310623
00:00:00.752	1.315018	1.276923	1.317216
00:00:00.752	1.291575	1.301832	1.316484
00:00:00.755	1.298901	1.317949	1.315751
00:00:00.755	1.290110	1.314286	1.317216
00:00:00.755	1.283516	1.312821	1.311355
00:00:00.755	1.276190	1.332601	1.304029
00:00:00.755	1.291575	1.350183	1.313553
00:00:00.755	1.309158	1.349451	1.311355
00:00:00.755	1.320879	1.358974	1.306960
00:00:00.755	1.328938	1.397802	1.307692
00:00:00.755	1.312821	1.395604	1.300366
00:00:00.756	1.315018	1.380952	1.304029
00:00:00.756	1.320147	1.348718	1.304029
00:00:00.757	1.312821	1.284249	1.302564
00:00:00.757	1.313553	1.289377	1.304029
00:00:00.757	1.307692	1.222711	1.300366
00:00:00.758	1.306960	1.202198	1.290842
00:00:00.758	1.312821	1.284982	1.301832
00:00:00.758	1.323810	1.321612	1.302564
00:00:00.759	1.320879	1.322344	1.300366
00:00:00.759	1.317949	1.305495	1.310623
00:00:00.759	1.308425	1.285714	1.298901
00:00:00.760	1.309158	1.246154	1.297436
00:00:00.760	1.295238	1.230037	1.298901
00:00:00.760	1.300366	1.259341	1.303297
00:00:00.761	1.294505	1.295971	1.300366
00:00:00.761	1.295971	1.284982	1.294505
00:00:00.762	1.308425	1.303297	1.309890
00:00:00.762	1.309158	1.304029	1.297436
00:00:00.762	1.312821	1.339194	1.311355
00:00:00.763	1.313553	1.378022	1.300366
00:00:00.763	1.322344	1.408059	1.312088
00:00:00.763	1.333333	1.420513	1.311355
