timestamp	ch1	ch2	ch3
00:00:00.000	1.318681	1.311355	1.300366
00:00:00.001	1.308425	1.307692	1.300366
00:00:00.001	1.310623	1.308425	1.304762
00:00:00.001	1.306227	1.309158	1.306960
00:00:00.002	1.306960	1.321612	1.302564
00:00:00.002	1.304762	1.323810	1.306227
00:00:00.002	1.300366	1.301832	1.300366
00:00:00.003	1.307692	1.297436	1.309890
00:00:00.003	1.298168	1.284982	1.304762
00:00:00.004	1.308425	1.285714	1.310623
00:00:00.004	1.306227	1.278388	1.296703
00:00:00.004	1.301832	1.277656	1.302564
00:00:00.005	1.308425	1.287179	1.297436
00:00:00.005	1.308425	1.291575	1.296703
00:00:00.005	1.309158	1.294505	1.300366
00:00:00.006	1.309158	1.301832	1.296703
00:00:00.006	1.313553	1.319414	1.301832
00:00:00.006	1.309158	1.323810	1.303297
00:00:00.007	1.309890	1.323077	1.306227
00:00:00.007	1.305495	1.325275	1.304029
00:00:00.007	1.317949	1.318681	1.306227
00:00:00.008	1.310623	1.312821	1.305495
00:00:00.008	1.307692	1.310623	1.312821
00:00:00.009	1.307692	1.300366	1.313553
00:00:00.009	1.297436	1.294505	1.313553
00:00:00.009	1.312088	1.300366	1.319414
00:00:00.010	1.309890	1.297436	1.304762
00:00:00.010	1.309158	1.305495	1.308425
00:00:00.010	1.312821	1.320147	1.303297
00:00:00.011	1.312088	1.322344	1.300366
00:00:00.011	1.314286	1.320147	1.306960
00:00:00.011	1.311355	1.305495	1.300366
00:00:00.012	1.311355	1.289377	1.295238
00:00:00.012	1.300366	1.285714	1.298168
00:00:00.012	1.302564	1.278388	1.287179
00:00:00.013	1.317216	1.292308	1.306227
00:00:00.013	1.310623	1.296703	1.300366
00:00:00.014	1.306960	1.279121	1.295238
00:00:00.014	1.306227	1.287912	1.301832
00:00:00.014	1.307692	1.303297	1.300366
00:00:00.015	1.293040	1.299634	1.302564
00:00:00.015	1.306960	1.309890	1.309890
00:00:00.015	1.309158	1.316484	1.305495
00:00:00.016	1.304762	1.312821	1.297436
00:00:00.016	1.313553	1.314286	1.310623
00:00:00.016	1.312821	1.306960	1.297436
00:00:00.017	1.298901	1.300366	1.295238
00:00:00.017	1.313553	1.308425	1.306227
00:00:00.017	1.310623	1.306960	1.299634
00:00:00.018	1.309158	1.317216	1.304029
00:00:00.051	1.305495	1.307692	1.310623
00:00:00.051	1.304029	1.303297	1.288645
00:00:00.051	1.303297	1.316484	1.303297
00:00:00.051	1.322344	1.307692	1.302564
00:00:00.051	1.324542	1.293773	1.307692
00:00:00.052	1.306960	1.290110	1.304762
00:00:00.052	1.312088	1.287912	1.308425
00:00:00.053	1.312088	1.298901	1.312821
00:00:00.053	1.309158	1.298901	1.305495
00:00:00.053	1.308425	1.298168	1.309890
00:00:00.054	1.307692	1.295238	1.308425
00:00:00.054	1.309890	1.302564	1.304762
00:00:00.054	1.306960	1.306227	1.304029
00:00:00.055	1.315751	1.308425	1.309890
00:00:00.055	1.312088	1.320147	1.305495
00:00:00.055	1.311355	1.315018	1.304762
00:00:00.058	1.315018	1.321612	1.302564
00:00:00.058	1.301832	1.343590	1.296703
00:00:00.058	1.317949	1.364103	1.298901
00:00:00.058	1.309158	1.337729	1.293773
00:00:00.058	1.312088	1.320147	1.303297
00:00:00.058	1.315018	1.295971	1.309890
00:00:00.058	1.308425	1.278388	1.312088
00:00:00.058	1.298901	1.276923	1.308425
00:00:00.059	1.301099	1.279853	1.300366
00:00:00.059	1.315018	1.281319	1.297436
00:00:00.059	1.313553	1.271062	1.308425
00:00:00.062	1.303297	1.241026	1.292308
00:00:00.062	1.306960	1.249817	1.294505
00:00:00.062	1.303297	1.278388	1.300366
00:00:00.062	1.296703	1.303297	1.303297
00:00:00.062	1.297436	1.312088	1.290842
00:00:00.062	1.306227	1.337729	1.295971
00:00:00.062	1.315018	1.350916	1.302564
00:00:00.062	1.303297	1.317216	1.291575
00:00:00.063	1.306960	1.320147	1.292308
00:00:00.063	1.305495	1.324542	1.298901
00:00:00.063	1.304029	1.318681	1.295971
00:00:00.064	1.315018	1.309158	1.303297
00:00:00.064	1.309890	1.294505	1.295238
00:00:00.064	1.300366	1.290842	1.306960
00:00:00.065	1.306227	1.307692	1.312088
00:00:00.065	1.311355	1.311355	1.309890
00:00:00.065	1.312088	1.304029	1.308425
00:00:00.066	1.295238	1.273260	1.295238
00:00:00.066	1.300366	1.290110	1.305495
00:00:00.066	1.308425	1.296703	1.300366
00:00:00.067	1.312821	1.302564	1.301832
00:00:00.067	1.320147	1.314286	1.300366
00:00:00.068	1.314286	1.317949	1.304029
00:00:00.100	1.309158	1.297436	1.300366
00:00:00.100	1.310623	1.290842	1.300366
00:00:00.100	1.311355	1.302564	1.299634
00:00:00.101	1.312088	1.293773	1.290842
00:00:00.101	1.304762	1.298168	1.308425
00:00:00.102	1.309158	1.294505	1.308425
00:00:00.102	1.309890	1.297436	1.309158
00:00:00.103	1.309890	1.293040	1.305495
00:00:00.103	1.306227	1.282051	1.311355
00:00:00.103	1.310623	1.299634	1.308425
00:00:00.103	1.301832	1.308425	1.309890
00:00:00.104	1.315018	1.315751	1.308425
00:00:00.104	1.310623	1.306960	1.290842
00:00:00.104	1.302564	1.295971	1.287912
00:00:00.105	1.308425	1.308425	1.300366
00:00:00.105	1.316484	1.305495	1.294505
00:00:00.105	1.312821	1.314286	1.299634
00:00:00.106	1.314286	1.315751	1.296703
00:00:00.106	1.309890	1.334799	1.308425
00:00:00.107	1.315018	1.352381	1.302564
00:00:00.107	1.302564	1.328938	1.301832
00:00:00.107	1.315018	1.310623	1.313553
00:00:00.108	1.309158	1.296703	1.306960
00:00:00.108	1.300366	1.295238	1.313553
00:00:00.108	1.307692	1.292308	1.315018
00:00:00.109	1.303297	1.281319	1.298168
00:00:00.109	1.311355	1.287912	1.313553
00:00:00.109	1.306960	1.283516	1.303297
00:00:00.110	1.303297	1.304762	1.300366
00:00:00.110	1.315018	1.321612	1.304029
00:00:00.110	1.312088	1.315018	1.296703
00:00:00.111	1.312088	1.309158	1.292308
00:00:00.111	1.315751	1.311355	1.298901
00:00:00.112	1.309158	1.306960	1.298901
00:00:00.112	1.315751	1.298168	1.300366
00:00:00.112	1.310623	1.296703	1.298168
00:00:00.113	1.317216	1.302564	1.302564
00:00:00.113	1.309158	1.297436	1.303297
00:00:00.113	1.301832	1.289377	1.293040
00:00:00.114	1.298168	1.295238	1.304029
00:00:00.114	1.304762	1.296703	1.308425
00:00:00.114	1.301832	1.297436	1.306960
00:00:00.115	1.315751	1.309890	1.312821
00:00:00.115	1.310623	1.306960	1.304029
00:00:00.115	1.309158	1.302564	1.309890
00:00:00.116	1.313553	1.304029	1.308425
00:00:00.116	1.311355	1.305495	1.301832
00:00:00.117	1.302564	1.307692	1.299634
00:00:00.117	1.309158	1.304762	1.297436
00:00:00.117	1.315018	1.311355	1.306227
00:00:00.149	1.305495	1.294505	1.285714
00:00:00.150	1.310623	1.311355	1.300366
00:00:00.150	1.312088	1.313553	1.306227
00:00:00.151	1.320147	1.317216	1.308425
00:00:00.151	1.308425	1.330403	1.307692
00:00:00.151	1.317216	1.342125	1.304029
00:00:00.153	1.313553	1.312821	1.310623
00:00:00.153	1.307692	1.295971	1.312821
00:00:00.153	1.298901	1.284982	1.307692
00:00:00.153	1.304762	1.293773	1.305495
00:00:00.153	1.299634	1.292308	1.296703
00:00:00.153	1.304762	1.309158	1.309158
00:00:00.155	1.304762	1.296703	1.304029
00:00:00.155	1.309158	1.277656	1.295971
00:00:00.155	1.302564	1.284249	1.282784
00:00:00.155	1.306960	1.293773	1.279853
00:00:00.155	1.313553	1.300366	1.293040
00:00:00.158	1.300366	1.289377	1.288645
00:00:00.158	1.306960	1.298168	1.294505
00:00:00.158	1.302564	1.287179	1.298901
00:00:00.158	1.313553	1.284982	1.299634
00:00:00.158	1.319414	1.290842	1.295971
00:00:00.158	1.316484	1.298901	1.309890
00:00:00.158	1.307692	1.281319	1.307692
00:00:00.158	1.305495	1.281319	1.309158
00:00:00.158	1.308425	1.303297	1.309158
00:00:00.159	1.305495	1.317949	1.304029
00:00:00.159	1.305495	1.320147	1.304762
00:00:00.159	1.312088	1.321612	1.302564
00:00:00.160	1.309158	1.327473	1.308425
00:00:00.160	1.306227	1.328938	1.300366
00:00:00.161	1.309158	1.328205	1.300366
00:00:00.161	1.309890	1.339194	1.300366
00:00:00.161	1.313553	1.358974	1.304762
00:00:00.162	1.303297	1.346520	1.293773
00:00:00.162	1.312088	1.342125	1.310623
00:00:00.162	1.313553	1.317216	1.300366
00:00:00.163	1.310623	1.277656	1.290842
00:00:00.163	1.308425	1.260073	1.303297
00:00:00.163	1.312088	1.240293	1.300366
00:00:00.164	1.305495	1.241026	1.306227
00:00:00.164	1.306960	1.250549	1.305495
00:00:00.164	1.305495	1.265934	1.298168
00:00:00.165	1.307692	1.286447	1.309890
00:00:00.165	1.301832	1.287912	1.303297
00:00:00.166	1.309890	1.304762	1.303297
00:00:00.166	1.312088	1.323810	1.307692
00:00:00.166	1.313553	1.327473	1.299634
00:00:00.167	1.303297	1.331868	1.300366
00:00:00.167	1.311355	1.336996	1.300366
00:00:00.199	1.315018	1.330403	1.300366
00:00:00.200	1.310623	1.323077	1.305495
00:00:00.200	1.315018	1.316484	1.300366
00:00:00.200	1.305495	1.302564	1.295971
00:00:00.201	1.312088	1.306960	1.306227
00:00:00.201	1.311355	1.309890	1.304029
00:00:00.201	1.306960	1.309890	1.317949
00:00:00.202	1.311355	1.300366	1.309890
00:00:00.202	1.308425	1.302564	1.307692
00:00:00.202	1.306960	1.304029	1.313553
00:00:00.203	1.305495	1.300366	1.304762
00:00:00.203	1.300366	1.293773	1.299634
00:00:00.203	1.313553	1.298168	1.299634
00:00:00.204	1.310623	1.306960	1.300366
00:00:00.204	1.301832	1.301832	1.298168
00:00:00.205	1.315751	1.311355	1.293773
00:00:00.205	1.305495	1.305495	1.286447
00:00:00.205	1.309158	1.311355	1.293040
00:00:00.206	1.310623	1.309158	1.294505
00:00:00.206	1.308425	1.306960	1.287912
00:00:00.206	1.314286	1.326007	1.306227
00:00:00.208	1.310623	1.328205	1.304029
00:00:00.208	1.308425	1.312088	1.305495
00:00:00.208	1.307692	1.315018	1.302564
00:00:00.208	1.303297	1.320147	1.300366
00:00:00.208	1.301832	1.295971	1.304029
00:00:00.208	1.315018	1.274725	1.306960
00:00:00.209	1.312088	1.269597	1.309890
00:00:00.209	1.313553	1.276923	1.313553
00:00:00.210	1.315018	1.304029	1.307692
00:00:00.210	1.312088	1.290842	1.300366
00:00:00.210	1.317216	1.292308	1.304029
00:00:00.211	1.307692	1.292308	1.304029
00:00:00.211	1.312088	1.302564	1.297436
00:00:00.211	1.300366	1.300366	1.293773
00:00:00.212	1.308425	1.309158	1.295971
00:00:00.212	1.304762	1.302564	1.305495
00:00:00.212	1.301832	1.277656	1.299634
00:00:00.213	1.309158	1.271795	1.301099
00:00:00.213	1.311355	1.287912	1.306227
00:00:00.213	1.307692	1.298901	1.303297
00:00:00.214	1.294505	1.306960	1.306227
00:00:00.214	1.300366	1.317216	1.310623
00:00:00.218	1.304762	1.308425	1.292308
00:00:00.218	1.298901	1.309158	1.297436
00:00:00.218	1.316484	1.331868	1.304029
00:00:00.218	1.312821	1.325275	1.295971
00:00:00.218	1.307692	1.317216	1.298168
00:00:00.218	1.306227	1.309890	1.299634
00:00:00.218	1.303297	1.302564	1.297436
00:00:00.251	1.317949	1.309890	1.296703
00:00:00.251	1.312088	1.303297	1.292308
00:00:00.251	1.311355	1.306960	1.307692
00:00:00.251	1.306227	1.306227	1.308425
00:00:00.251	1.304029	1.299634	1.303297
00:00:00.251	1.307692	1.314286	1.310623
00:00:00.251	1.312088	1.320147	1.311355
00:00:00.251	1.304762	1.314286	1.312088
00:00:00.254	1.312821	1.315018	1.314286
00:00:00.254	1.309158	1.293040	1.305495
00:00:00.254	1.314286	1.278388	1.306960
00:00:00.254	1.309890	1.285714	1.304029
00:00:00.254	1.304029	1.305495	1.306960
00:00:00.254	1.302564	1.307692	1.305495
00:00:00.254	1.301832	1.317216	1.298168
00:00:00.254	1.317216	1.321612	1.305495
00:00:00.255	1.307692	1.315018	1.300366
00:00:00.255	1.304029	1.305495	1.295238
00:00:00.255	1.306227	1.294505	1.300366
00:00:00.256	1.313553	1.295238	1.293773
00:00:00.256	1.320147	1.309890	1.311355
00:00:00.256	1.307692	1.306227	1.303297
00:00:00.257	1.312088	1.304762	1.300366
00:00:00.257	1.307692	1.301832	1.298901
00:00:00.257	1.307692	1.301832	1.311355
00:00:00.258	1.310623	1.305495	1.309890
00:00:00.258	1.300366	1.305495	1.298901
00:00:00.259	1.310623	1.312088	1.317216
00:00:00.260	1.320879	1.297436	1.305495
00:00:00.260	1.298168	1.284249	1.300366
00:00:00.260	1.317216	1.294505	1.304029
00:00:00.260	1.309158	1.302564	1.305495
00:00:00.260	1.318681	1.305495	1.303297
00:00:00.261	1.303297	1.307692	1.298901
00:00:00.261	1.314286	1.317216	1.301832
00:00:00.261	1.311355	1.314286	1.300366
00:00:00.262	1.302564	1.306227	1.303297
00:00:00.262	1.301832	1.306227	1.295971
00:00:00.262	1.310623	1.315751	1.309890
00:00:00.263	1.311355	1.308425	1.313553
00:00:00.263	1.309158	1.298168	1.307692
00:00:00.264	1.309158	1.303297	1.310623
00:00:00.264	1.310623	1.309890	1.309158
00:00:00.264	1.315018	1.317216	1.315751
00:00:00.265	1.309890	1.300366	1.296703
00:00:00.265	1.315751	1.300366	1.313553
00:00:00.265	1.310623	1.298901	1.306227
00:00:00.266	1.315751	1.302564	1.306227
00:00:00.266	1.310623	1.305495	1.292308
00:00:00.266	1.312088	1.350183	1.299634
00:00:00.299	1.312088	1.347985	1.295971
00:00:00.299	1.309158	1.326740	1.284249
00:00:00.299	1.309158	1.303297	1.293773
00:00:00.300	1.313553	1.287179	1.302564
00:00:00.300	1.300366	1.284249	1.300366
00:00:00.300	1.299634	1.271062	1.290842
00:00:00.301	1.310623	1.270330	1.299634
00:00:00.301	1.313553	1.248352	1.308425
00:00:00.301	1.309890	1.257143	1.308425
00:00:00.302	1.313553	1.271795	1.309158
00:00:00.302	1.304762	1.279121	1.311355
00:00:00.303	1.304762	1.310623	1.314286
00:00:00.303	1.314286	1.318681	1.312088
00:00:00.303	1.308425	1.318681	1.305495
00:00:00.304	1.306227	1.309890	1.291575
00:00:00.304	1.311355	1.323810	1.299634
00:00:00.304	1.298168	1.313553	1.293773
00:00:00.305	1.296703	1.310623	1.293773
00:00:00.305	1.309890	1.318681	1.291575
00:00:00.305	1.293773	1.310623	1.294505
00:00:00.306	1.300366	1.323077	1.298901
00:00:00.306	1.301832	1.317949	1.285714
00:00:00.306	1.311355	1.326740	1.300366
00:00:00.307	1.312088	1.308425	1.298901
00:00:00.307	1.317216	1.301832	1.308425
00:00:00.308	1.315018	1.292308	1.304029
00:00:00.308	1.317949	1.284249	1.312821
00:00:00.308	1.309158	1.276190	1.307692
00:00:00.309	1.316484	1.284249	1.308425
00:00:00.309	1.315751	1.295238	1.309890
00:00:00.309	1.300366	1.295238	1.294505
00:00:00.310	1.314286	1.317216	1.307692
00:00:00.310	1.309158	1.316484	1.298901
00:00:00.310	1.304029	1.300366	1.300366
00:00:00.311	1.311355	1.306227	1.298168
00:00:00.312	1.304762	1.314286	1.293773
00:00:00.312	1.312821	1.320879	1.303297
00:00:00.312	1.315751	1.318681	1.300366
00:00:00.312	1.294505	1.310623	1.292308
00:00:00.313	1.304762	1.323810	1.306960
00:00:00.313	1.296703	1.320147	1.308425
00:00:00.313	1.295238	1.304029	1.306227
00:00:00.316	1.326740	1.299634	1.318681
00:00:00.316	1.304762	1.287179	1.310623
00:00:00.316	1.315751	1.304029	1.330403
00:00:00.316	1.315018	1.286447	1.320147
00:00:00.316	1.300366	1.280586	1.300366
00:00:00.316	1.309890	1.303297	1.306227
00:00:00.316	1.301832	1.315751	1.295971
00:00:00.316	1.308425	1.331136	1.299634
00:00:00.350	1.320879	1.331136	1.295238
00:00:00.350	1.306227	1.322344	1.286447
00:00:00.350	1.314286	1.320147	1.290110
00:00:00.350	1.315751	1.314286	1.300366
00:00:00.350	1.304029	1.307692	1.298901
00:00:00.350	1.305495	1.295238	1.298901
00:00:00.350	1.309890	1.279121	1.298901
00:00:00.351	1.306227	1.257143	1.295238
00:00:00.351	1.300366	1.264469	1.299634
00:00:00.352	1.309890	1.280586	1.298901
00:00:00.352	1.309158	1.282784	1.302564
00:00:00.352	1.318681	1.301832	1.309158
00:00:00.353	1.330403	1.312088	1.309158
00:00:00.353	1.313553	1.320147	1.312821
00:00:00.353	1.312088	1.328938	1.307692
00:00:00.354	1.301832	1.304762	1.289377
00:00:00.354	1.301099	1.312088	1.284982
00:00:00.354	1.303297	1.314286	1.284249
00:00:00.355	1.285714	1.304762	1.279853
00:00:00.355	1.294505	1.312088	1.300366
00:00:00.355	1.298901	1.299634	1.294505
00:00:00.356	1.307692	1.302564	1.310623
00:00:00.356	1.304029	1.296703	1.331136
00:00:00.357	1.282784	1.280586	1.325275
00:00:00.357	1.309158	1.298168	1.329670
00:00:00.357	1.285714	1.306227	1.267399
00:00:00.358	1.222711	1.305495	1.276923
00:00:00.358	1.208059	1.310623	1.345055
00:00:00.358	1.292308	1.318681	1.356044
00:00:00.359	1.360440	1.320147	1.345788
00:00:00.359	1.419780	1.300366	1.309890
00:00:00.359	1.457143	1.294505	1.293040
00:00:00.360	1.420513	1.295971	1.291575
00:00:00.360	1.347253	1.300366	1.290842
00:00:00.361	1.304029	1.309158	1.303297
00:00:00.361	1.249084	1.309158	1.308425
00:00:00.361	1.216117	1.309890	1.310623
00:00:00.362	1.285714	1.314286	1.306227
00:00:00.362	1.315018	1.304762	1.280586
00:00:00.362	1.323077	1.324542	1.298901
00:00:00.363	1.313553	1.323810	1.306227
00:00:00.363	1.300366	1.309158	1.298901
00:00:00.364	1.321612	1.279121	1.306960
00:00:00.364	1.320879	1.263736	1.300366
00:00:00.364	1.304762	1.259341	1.298901
00:00:00.364	1.309158	1.287912	1.305495
00:00:00.365	1.293773	1.298901	1.306227
00:00:00.365	1.275458	1.307692	1.300366
00:00:00.366	1.290842	1.325275	1.293040
00:00:00.366	1.294505	1.353114	1.287179
00:00:00.398	1.295238	1.339194	1.287179
00:00:00.398	1.304762	1.330403	1.295971
00:00:00.399	1.294505	1.289377	1.287179
00:00:00.399	1.323810	1.274725	1.289377
00:00:00.399	1.336264	1.290842	1.298168
00:00:00.400	1.331868	1.306960	1.306960
00:00:00.400	1.329670	1.327473	1.314286
00:00:00.401	1.312088	1.324542	1.294505
00:00:00.401	1.320879	1.315018	1.312821
00:00:00.401	1.309158	1.287912	1.310623
00:00:00.402	1.298168	1.268864	1.305495
00:00:00.402	1.303297	1.287179	1.314286
00:00:00.402	1.288645	1.276190	1.299634
00:00:00.403	1.297436	1.291575	1.306960
00:00:00.403	1.307692	1.301832	1.309158
00:00:00.403	1.307692	1.276190	1.289377
00:00:00.404	1.315751	1.283516	1.293773
00:00:00.404	1.317216	1.326007	1.291575
00:00:00.404	1.320879	1.347253	1.303297
00:00:00.405	1.320879	1.344322	1.299634
00:00:00.405	1.322344	1.334799	1.303297
00:00:00.406	1.327473	1.316484	1.295238
00:00:00.406	1.323810	1.318681	1.311355
00:00:00.406	1.310623	1.308425	1.312821
00:00:00.407	1.308425	1.301099	1.289377
00:00:00.407	1.309158	1.282051	1.279853
00:00:00.407	1.312088	1.288645	1.300366
00:00:00.409	1.309890	1.308425	1.317216
00:00:00.409	1.309158	1.309890	1.316484
00:00:00.409	1.298901	1.293040	1.291575
00:00:00.409	1.306227	1.314286	1.303297
00:00:00.409	1.319414	1.319414	1.311355
00:00:00.411	1.326740	1.338462	1.323810
00:00:00.411	1.312821	1.383150	1.352381
00:00:00.411	1.321612	1.365568	1.298901
00:00:00.411	1.319414	1.309890	1.271062
00:00:00.411	1.347985	1.266667	1.243223
00:00:00.411	1.350916	1.256410	1.249817
00:00:00.412	1.235897	1.309158	1.282784
00:00:00.412	1.208791	1.319414	1.295238
00:00:00.412	1.282051	1.273260	1.306227
00:00:00.415	1.347253	1.252747	1.300366
00:00:00.415	1.386813	1.252747	1.282051
00:00:00.415	1.373626	1.276923	1.337729
00:00:00.415	1.331868	1.325275	1.347253
00:00:00.415	1.335531	1.323077	1.355311
00:00:00.415	1.264469	1.278388	1.347253
00:00:00.415	1.200000	1.243223	1.365568
00:00:00.415	1.221978	1.224176	1.342857
00:00:00.416	1.255678	1.263736	1.315751
00:00:00.448	1.289377	1.299634	1.314286
00:00:00.448	1.298901	1.304762	1.276923
00:00:00.448	1.279853	1.301832	1.276923
00:00:00.449	1.293040	1.314286	1.280586
00:00:00.449	1.312088	1.325275	1.276923
00:00:00.450	1.370696	1.350183	1.274725
00:00:00.450	1.386081	1.343590	1.292308
00:00:00.450	1.344322	1.309158	1.297436
00:00:00.451	1.279121	1.315751	1.315018
00:00:00.451	1.306960	1.319414	1.327473
00:00:00.451	1.329670	1.321612	1.337729
00:00:00.452	1.382418	1.331868	1.342125
00:00:00.452	1.402198	1.323810	1.328938
00:00:00.452	1.353846	1.284249	1.293040
00:00:00.453	1.304762	1.300366	1.273993
00:00:00.453	1.268132	1.334799	1.260073
00:00:00.453	1.241026	1.392674	1.272527
00:00:00.454	1.263736	1.381685	1.287912
00:00:00.454	1.287179	1.317949	1.285714
00:00:00.455	1.282051	1.250549	1.286447
00:00:00.455	1.290110	1.237363	1.288645
00:00:00.455	1.262271	1.259341	1.305495
00:00:00.456	1.273993	1.265934	1.314286
00:00:00.456	1.312088	1.243956	1.306227
00:00:00.456	1.340659	1.263004	1.292308
00:00:00.457	1.354579	1.280586	1.323810
00:00:00.457	1.335531	1.328205	1.330403
00:00:00.457	1.354579	1.343590	1.317949
00:00:00.458	1.318681	1.317216	1.300366
00:00:00.458	1.290110	1.317949	1.316484
00:00:00.459	1.279853	1.305495	1.304762
00:00:00.459	1.288645	1.297436	1.286447
00:00:00.459	1.315018	1.298901	1.293773
00:00:00.460	1.315018	1.288645	1.294505
00:00:00.460	1.282784	1.290842	1.298168
00:00:00.460	1.234432	1.300366	1.293040
00:00:00.461	1.309890	1.320147	1.300366
00:00:00.461	1.339927	1.328938	1.300366
00:00:00.461	1.362637	1.324542	1.300366
00:00:00.462	1.389744	1.343590	1.303297
00:00:00.462	1.375824	1.392674	1.316484
00:00:00.462	1.326007	1.375824	1.313553
00:00:00.463	1.284982	1.342857	1.312088
00:00:00.463	1.249084	1.285714	1.300366
00:00:00.464	1.249084	1.232967	1.303297
00:00:00.464	1.250549	1.238095	1.295238
00:00:00.464	1.275458	1.220513	1.276923
00:00:00.465	1.339194	1.249084	1.295238
00:00:00.465	1.327473	1.268132	1.306227
00:00:00.465	1.326740	1.298901	1.313553
00:00:00.497	1.353114	1.318681	1.297436
00:00:00.498	1.323810	1.340659	1.292308
00:00:00.498	1.312821	1.324542	1.293040
00:00:00.499	1.315018	1.324542	1.304762
00:00:00.499	1.315018	1.326740	1.315751
00:00:00.499	1.297436	1.307692	1.309158
00:00:00.500	1.306227	1.301099	1.322344
00:00:00.500	1.308425	1.296703	1.315018
00:00:00.500	1.319414	1.281319	1.310623
00:00:00.501	1.329670	1.243223	1.300366
00:00:00.501	1.295238	1.249817	1.290110
00:00:00.501	1.317216	1.299634	1.302564
00:00:00.502	1.336996	1.326007	1.306227
00:00:00.502	1.370696	1.326007	1.308425
00:00:00.503	1.373626	1.332601	1.289377
00:00:00.503	1.375824	1.401465	1.295971
00:00:00.503	1.338462	1.347985	1.302564
00:00:00.507	1.260806	1.293040	1.304029
00:00:00.507	1.194872	1.276190	1.302564
00:00:00.507	1.161905	1.271795	1.319414
00:00:00.507	1.197070	1.262271	1.300366
00:00:00.507	1.230769	1.327473	1.298168
00:00:00.507	1.265934	1.361905	1.298901
00:00:00.507	1.321612	1.305495	1.294505
00:00:00.507	1.354579	1.305495	1.290842
00:00:00.507	1.315018	1.314286	1.300366
00:00:00.507	1.325275	1.313553	1.312821
00:00:00.507	1.346520	1.317949	1.317949
00:00:00.508	1.332601	1.299634	1.314286
00:00:00.508	1.320879	1.241026	1.290110
00:00:00.508	1.328205	1.274725	1.298901
00:00:00.511	1.303297	1.309890	1.287912
00:00:00.511	1.282051	1.339927	1.287912
00:00:00.511	1.299634	1.337729	1.275458
00:00:00.511	1.347985	1.406593	1.279853
00:00:00.511	1.419780	1.375092	1.287912
00:00:00.511	1.422711	1.292308	1.282051
00:00:00.511	1.365568	1.262271	1.232234
00:00:00.511	1.271795	1.245421	1.197070
00:00:00.511	1.203663	1.257143	1.201465
00:00:00.512	1.223443	1.245421	1.356777
00:00:00.512	1.224908	1.216850	1.380220
00:00:00.513	1.263736	1.206593	1.487912
00:00:00.513	1.306227	1.250549	1.428571
00:00:00.513	1.346520	1.298168	1.421978
00:00:00.514	1.350183	1.359707	1.337729
00:00:00.514	1.318681	1.339927	1.257143
00:00:00.514	1.294505	1.331136	1.263736
00:00:00.515	1.246886	1.348718	1.282784
00:00:00.515	1.251282	1.329670	1.273260
00:00:00.547	1.324542	1.301099	1.306960
00:00:00.548	1.389744	1.253480	1.304029
00:00:00.548	1.388278	1.245421	1.320147
00:00:00.548	1.326740	1.235165	1.282784
00:00:00.549	1.300366	1.279121	1.284249
00:00:00.549	1.279853	1.331868	1.290842
00:00:00.549	1.309158	1.332601	1.295238
00:00:00.550	1.317949	1.360440	1.282784
00:00:00.550	1.314286	1.325275	1.290842
00:00:00.550	1.316484	1.312821	1.303297
00:00:00.551	1.300366	1.323810	1.290842
00:00:00.551	1.315751	1.386081	1.292308
00:00:00.552	1.323077	1.340659	1.306227
00:00:00.552	1.312821	1.269597	1.302564
00:00:00.552	1.315751	1.338462	1.304029
00:00:00.553	1.312088	1.337729	1.290842
00:00:00.553	1.319414	1.281319	1.305495
00:00:00.553	1.317216	1.251282	1.300366
00:00:00.554	1.297436	1.255678	1.300366
00:00:00.554	1.307692	1.317216	1.297436
00:00:00.554	1.313553	1.373626	1.312088
00:00:00.555	1.300366	1.341392	1.301832
00:00:00.555	1.281319	1.273260	1.300366
00:00:00.555	1.270330	1.246154	1.293773
00:00:00.556	1.265201	1.291575	1.300366
00:00:00.556	1.286447	1.302564	1.303297
00:00:00.557	1.320879	1.300366	1.306960
00:00:00.557	1.369231	1.287179	1.315751
00:00:00.557	1.356777	1.298901	1.310623
00:00:00.558	1.325275	1.306960	1.308425
00:00:00.558	1.333333	1.317949	1.309890
00:00:00.558	1.357509	1.384615	1.317216
00:00:00.559	1.402198	1.416117	1.309890
00:00:00.559	1.400000	1.351648	1.298168
00:00:00.559	1.344322	1.312088	1.298901
00:00:00.560	1.269597	1.288645	1.290110
00:00:00.560	1.215385	1.228571	1.279853
00:00:00.560	1.158242	1.281319	1.296703
00:00:00.561	1.194872	1.336264	1.297436
00:00:00.561	1.252015	1.212454	1.276923
00:00:00.562	1.290842	1.178755	1.297436
00:00:00.562	1.334799	1.257143	1.299634
00:00:00.562	1.320879	1.312088	1.306960
00:00:00.563	1.332601	1.314286	1.313553
00:00:00.563	1.335531	1.282784	1.321612
00:00:00.563	1.321612	1.255678	1.279853
00:00:00.564	1.347253	1.281319	1.306960
00:00:00.564	1.309158	1.313553	1.321612
00:00:00.564	1.278388	1.320879	1.302564
00:00:00.565	1.282784	1.367766	1.309890
00:00:00.597	1.288645	1.369963	1.310623
00:00:00.597	1.313553	1.349451	1.309890
00:00:00.598	1.395604	1.323077	1.328938
00:00:00.598	1.375824	1.292308	1.292308
00:00:00.598	1.337729	1.291575	1.283516
00:00:00.599	1.311355	1.298168	1.288645
00:00:00.599	1.273260	1.345055	1.303297
00:00:00.599	1.263004	1.374359	1.309890
00:00:00.600	1.266667	1.388278	1.292308
00:00:00.600	1.257875	1.328938	1.282784
00:00:00.601	1.301832	1.312088	1.316484
00:00:00.601	1.349451	1.282784	1.299634
00:00:00.601	1.400733	1.257143	1.307692
00:00:00.603	1.428571	1.258608	1.312088
00:00:00.603	1.391941	1.257143	1.298901
00:00:00.603	1.295238	1.277656	1.287179
00:00:00.603	1.238095	1.309890	1.291575
00:00:00.603	1.254945	1.315018	1.275458
00:00:00.603	1.276923	1.337729	1.298901
00:00:00.606	1.290842	1.346520	1.299634
00:00:00.606	1.267399	1.320147	1.300366
00:00:00.606	1.265201	1.295971	1.280586
00:00:00.606	1.306960	1.279853	1.276923
00:00:00.606	1.372894	1.312821	1.342857
00:00:00.606	1.383883	1.301832	1.370696
00:00:00.606	1.325275	1.254212	1.340659
00:00:00.606	1.266667	1.249084	1.285714
00:00:00.607	1.221245	1.313553	1.284982
00:00:00.607	1.251282	1.343590	1.322344
00:00:00.607	1.292308	1.332601	1.332601
00:00:00.608	1.327473	1.394139	1.345788
00:00:00.608	1.319414	1.332601	1.313553
00:00:00.608	1.336264	1.342857	1.303297
00:00:00.609	1.344322	1.386813	1.292308
00:00:00.609	1.340659	1.378022	1.298168
00:00:00.609	1.350183	1.338462	1.304762
00:00:00.610	1.337729	1.273260	1.295971
00:00:00.610	1.324542	1.154579	1.300366
00:00:00.611	1.312821	1.087912	1.297436
00:00:00.611	1.312088	1.178755	1.291575
00:00:00.611	1.298168	1.265201	1.290110
00:00:00.612	1.276923	1.271795	1.276923
00:00:00.612	1.272527	1.267399	1.257143
00:00:00.612	1.298901	1.314286	1.267399
00:00:00.613	1.300366	1.323810	1.248352
00:00:00.613	1.314286	1.345055	1.284249
00:00:00.613	1.309158	1.353114	1.369963
00:00:00.614	1.285714	1.316484	1.366300
00:00:00.614	1.300366	1.326740	1.363370
00:00:00.614	1.291575	1.329670	1.266667
00:00:00.647	1.313553	1.313553	1.272527
00:00:00.647	1.320879	1.287912	1.276190
00:00:00.647	1.315751	1.312821	1.275458
00:00:00.648	1.288645	1.336264	1.295971
00:00:00.648	1.303297	1.309890	1.297436
00:00:00.648	1.336264	1.293040	1.305495
00:00:00.649	1.354579	1.307692	1.293773
00:00:00.649	1.351648	1.347253	1.304762
00:00:00.650	1.359707	1.375824	1.317949
00:00:00.650	1.346520	1.343590	1.304762
00:00:00.650	1.304762	1.271062	1.300366
00:00:00.651	1.285714	1.288645	1.308425
00:00:00.651	1.268864	1.305495	1.302564
00:00:00.651	1.263736	1.310623	1.296703
00:00:00.652	1.287179	1.301832	1.303297
00:00:00.652	1.293773	1.260806	1.306960
00:00:00.652	1.279853	1.249817	1.305495
00:00:00.653	1.306960	1.263004	1.300366
00:00:00.653	1.325275	1.275458	1.290842
00:00:00.653	1.346520	1.303297	1.313553
00:00:00.654	1.364103	1.289377	1.300366
00:00:00.654	1.321612	1.317216	1.305495
00:00:00.655	1.294505	1.360440	1.290110
00:00:00.655	1.337729	1.389011	1.287912
00:00:00.655	1.386813	1.322344	1.298901
00:00:00.656	1.421978	1.257875	1.298901
00:00:00.657	1.364835	1.286447	1.312821
00:00:00.657	1.257875	1.365568	1.310623
00:00:00.657	1.180952	1.369963	1.316484
00:00:00.657	1.131868	1.389744	1.306227
00:00:00.657	1.180220	1.340659	1.320879
00:00:00.658	1.284982	1.312821	1.317216
00:00:00.658	1.320147	1.304762	1.309158
00:00:00.658	1.338462	1.262271	1.317216
00:00:00.659	1.329670	1.204396	1.293040
00:00:00.659	1.334066	1.238828	1.282784
00:00:00.660	1.323810	1.235165	1.293040
00:00:00.660	1.321612	1.262271	1.300366
00:00:00.660	1.336996	1.304029	1.311355
00:00:00.661	1.331868	1.319414	1.313553
00:00:00.661	1.332601	1.350916	1.326007
00:00:00.661	1.320147	1.397802	1.325275
00:00:00.662	1.310623	1.417582	1.314286
00:00:00.662	1.297436	1.460806	1.319414
00:00:00.662	1.305495	1.348718	1.296703
00:00:00.663	1.329670	1.229304	1.292308
00:00:00.663	1.330403	1.183883	1.295971
00:00:00.663	1.312088	1.263004	1.293773
00:00:00.665	1.312088	1.254212	1.293040
00:00:00.665	1.314286	1.215385	1.276923
00:00:00.697	1.301832	1.230037	1.286447
00:00:00.697	1.304029	1.253480	1.300366
00:00:00.698	1.301832	1.276190	1.287912
00:00:00.698	1.299634	1.330403	1.298901
00:00:00.699	1.301832	1.336264	1.295238
00:00:00.699	1.304029	1.276190	1.279121
00:00:00.699	1.364103	1.312821	1.303297
00:00:00.699	1.342125	1.304029	1.305495
00:00:00.699	1.300366	1.278388	1.289377
00:00:00.702	1.290842	1.317216	1.299634
00:00:00.702	1.274725	1.348718	1.294505
00:00:00.702	1.263736	1.353114	1.314286
00:00:00.702	1.265201	1.320879	1.335531
00:00:00.702	1.270330	1.309158	1.320879
00:00:00.702	1.301832	1.326740	1.306227
00:00:00.702	1.300366	1.292308	1.298901
00:00:00.702	1.304029	1.271795	1.292308
00:00:00.702	1.316484	1.298168	1.302564
00:00:00.703	1.341392	1.319414	1.309158
00:00:00.703	1.322344	1.290110	1.307692
00:00:00.704	1.306227	1.290110	1.296703
00:00:00.704	1.330403	1.313553	1.304762
00:00:00.704	1.325275	1.317216	1.295971
00:00:00.705	1.320147	1.334066	1.300366
00:00:00.705	1.317216	1.331136	1.295971
00:00:00.705	1.315751	1.323810	1.289377
00:00:00.706	1.317216	1.324542	1.303297
00:00:00.706	1.322344	1.311355	1.304762
00:00:00.706	1.300366	1.290842	1.309890
00:00:00.707	1.301832	1.282051	1.300366
00:00:00.707	1.307692	1.280586	1.295238
00:00:00.707	1.315751	1.289377	1.294505
00:00:00.708	1.322344	1.327473	1.298168
00:00:00.709	1.301832	1.344322	1.312821
00:00:00.709	1.305495	1.376557	1.332601
00:00:00.709	1.293773	1.354579	1.331136
00:00:00.709	1.302564	1.340659	1.305495
00:00:00.710	1.305495	1.312088	1.300366
00:00:00.710	1.294505	1.281319	1.293040
00:00:00.710	1.306227	1.244689	1.292308
00:00:00.711	1.298901	1.239560	1.294505
00:00:00.711	1.304029	1.238095	1.301832
00:00:00.711	1.329670	1.256410	1.307692
00:00:00.712	1.336264	1.289377	1.300366
00:00:00.712	1.316484	1.318681	1.295238
00:00:00.712	1.350916	1.345788	1.315018
00:00:00.713	1.368498	1.313553	1.310623
00:00:00.713	1.345788	1.269597	1.311355
00:00:00.714	1.294505	1.286447	1.309890
00:00:00.714	1.206593	1.306960	1.296703
00:00:00.746	1.212454	1.323077	1.298901
00:00:00.746	1.224908	1.320147	1.290110
00:00:00.747	1.300366	1.319414	1.294505
00:00:00.747	1.328938	1.271062	1.290842
00:00:00.748	1.324542	1.255678	1.298901
00:00:00.748	1.329670	1.279853	1.290110
00:00:00.748	1.340659	1.373626	1.310623
00:00:00.749	1.348718	1.408791	1.306960
00:00:00.749	1.323810	1.335531	1.297436
00:00:00.749	1.308425	1.293040	1.309158
00:00:00.750	1.306227	1.304762	1.317949
00:00:00.750	1.287912	1.306227	1.314286
00:00:00.750	1.308425	1.304029	1.309158
00:00:00.751	1.301099	1.301832	1.298168
00:00:00.751	1.293773	1.386081	1.302564
00:00:00.751	1.314286	1.310623	1.304762
00:00:00.752	1.323810	1.231502	1.309158
00:00:00.752	1.328938	1.176557	1.302564
00:00:00.753	1.325275	1.241758	1.304029
00:00:00.753	1.291575	1.311355	1.304762
00:00:00.753	1.306227	1.326007	1.304029
00:00:00.754	1.332601	1.274725	1.293773
00:00:00.754	1.356777	1.307692	1.302564
00:00:00.754	1.328938	1.347253	1.297436
00:00:00.755	1.302564	1.279853	1.300366
00:00:00.755	1.333333	1.262271	1.311355
00:00:00.755	1.357509	1.262271	1.314286
00:00:00.756	1.372161	1.260073	1.317949
00:00:00.756	1.306227	1.285714	1.311355
00:00:00.756	1.260806	1.330403	1.311355
00:00:00.757	1.224176	1.337729	1.304029
00:00:00.757	1.259341	1.342125	1.314286
00:00:00.758	1.265201	1.338462	1.306227
00:00:00.758	1.258608	1.318681	1.293040
00:00:00.758	1.297436	1.344322	1.288645
00:00:00.759	1.353846	1.361905	1.289377
00:00:00.759	1.327473	1.353846	1.290110
00:00:00.759	1.352381	1.337729	1.304029
00:00:00.760	1.322344	1.306960	1.287912
00:00:00.760	1.328205	1.297436	1.311355
00:00:00.762	1.323077	1.308425	1.310623
00:00:00.762	1.314286	1.282051	1.295971
00:00:00.762	1.306227	1.267399	1.313553
00:00:00.762	1.296703	1.317216	1.301099
00:00:00.762	1.312088	1.358242	1.306960
00:00:00.762	1.320879	1.353846	1.315751
00:00:00.764	1.310623	1.315018	1.306960
00:00:00.764	1.315018	1.265934	1.307692
00:00:00.764	1.321612	1.247619	1.300366
00:00:00.764	1.276923	1.260073	1.300366
00:00:00.798	1.284982	1.268864	1.298901
00:00:00.798	1.308425	1.287179	1.298168
00:00:00.798	1.342125	1.314286	1.307692
00:00:00.798	1.374359	1.318681	1.297436
00:00:00.798	1.359707	1.343590	1.289377
00:00:00.798	1.337729	1.367766	1.300366
00:00:00.798	1.329670	1.366300	1.318681
00:00:00.798	1.271795	1.326740	1.308425
00:00:00.799	1.265201	1.302564	1.303297
00:00:00.799	1.271795	1.287179	1.304029
00:00:00.799	1.288645	1.270330	1.309890
00:00:00.800	1.298901	1.222711	1.306227
00:00:00.800	1.304762	1.208059	1.303297
00:00:00.800	1.311355	1.249817	1.302564
00:00:00.801	1.315018	1.301832	1.309158
00:00:00.801	1.282784	1.301832	1.290842
00:00:00.802	1.258608	1.293040	1.293773
00:00:00.802	1.288645	1.320879	1.295238
00:00:00.802	1.317949	1.335531	1.302564
00:00:00.803	1.320147	1.367033	1.309890
00:00:00.803	1.334066	1.380952	1.295238
00:00:00.803	1.313553	1.352381	1.285714
00:00:00.804	1.326007	1.356044	1.298901
00:00:00.804	1.333333	1.334799	1.307692
00:00:00.804	1.322344	1.286447	1.301832
00:00:00.805	1.324542	1.258608	1.315018
00:00:00.805	1.291575	1.204396	1.299634
00:00:00.805	1.263736	1.186813	1.292308
00:00:00.806	1.271795	1.227106	1.301832
00:00:00.806	1.271062	1.257875	1.302564
00:00:00.807	1.306960	1.295971	1.309158
00:00:00.807	1.323077	1.328938	1.299634
00:00:00.807	1.324542	1.329670	1.298901
00:00:00.808	1.328938	1.334066	1.298168
00:00:00.808	1.321612	1.354579	1.304029
00:00:00.808	1.300366	1.316484	1.299634
00:00:00.809	1.314286	1.312821	1.300366
00:00:00.809	1.312088	1.343590	1.292308
00:00:00.809	1.306227	1.331868	1.293773
00:00:00.810	1.317949	1.336996	1.304029
00:00:00.810	1.315018	1.334066	1.304762
00:00:00.810	1.312088	1.306960	1.304029
00:00:00.811	1.319414	1.323077	1.306960
00:00:00.811	1.314286	1.345055	1.308425
00:00:00.812	1.282784	1.347985	1.306227
00:00:00.812	1.298901	1.337729	1.306227
00:00:00.812	1.320147	1.291575	1.306227
00:00:00.813	1.332601	1.249817	1.309158
00:00:00.813	1.347985	1.234432	1.309158
00:00:00.813	1.346520	1.227839	1.302564
00:00:00.846	1.322344	1.241758	1.298168
00:00:00.846	1.304762	1.251282	1.304762
00:00:00.846	1.281319	1.296703	1.298901
00:00:00.847	1.295971	1.358242	1.298168
00:00:00.847	1.303297	1.328938	1.296703
00:00:00.847	1.290110	1.295238	1.296703
00:00:00.848	1.310623	1.331868	1.305495
00:00:00.848	1.294505	1.349451	1.314286
00:00:00.848	1.311355	1.339927	1.318681
00:00:00.849	1.306227	1.284982	1.299634
00:00:00.849	1.306960	1.271062	1.318681
00:00:00.849	1.287179	1.276190	1.305495
00:00:00.850	1.333333	1.304029	1.308425
00:00:00.850	1.361905	1.320879	1.315751
00:00:00.851	1.329670	1.306227	1.312821
00:00:00.851	1.320879	1.287179	1.304762
00:00:00.851	1.290842	1.290842	1.288645
00:00:00.852	1.301832	1.335531	1.306960
00:00:00.852	1.283516	1.337729	1.305495
00:00:00.852	1.284982	1.332601	1.300366
00:00:00.853	1.295238	1.325275	1.293773
00:00:00.853	1.302564	1.313553	1.291575
00:00:00.853	1.317216	1.327473	1.309158
00:00:00.854	1.326007	1.328938	1.307692
00:00:00.854	1.309158	1.347253	1.292308
00:00:00.854	1.298901	1.348718	1.306960
00:00:00.855	1.270330	1.352381	1.293040
00:00:00.855	1.295238	1.326740	1.311355
00:00:00.858	1.298901	1.257875	1.307692
00:00:00.858	1.317949	1.242491	1.291575
00:00:00.858	1.388278	1.270330	1.304029
00:00:00.858	1.425641	1.273993	1.300366
00:00:00.858	1.409524	1.282051	1.296703
00:00:00.858	1.370696	1.238828	1.329670
00:00:00.858	1.264469	1.202930	1.328938
00:00:00.858	1.256410	1.265201	1.323810
00:00:00.858	1.235165	1.298901	1.306227
00:00:00.859	1.235897	1.310623	1.302564
00:00:00.859	1.263004	1.318681	1.286447
00:00:00.859	1.260073	1.259341	1.276923
00:00:00.862	1.267399	1.262271	1.273993
00:00:00.862	1.309890	1.327473	1.286447
00:00:00.862	1.305495	1.350183	1.298168
00:00:00.862	1.324542	1.331868	1.297436
00:00:00.862	1.322344	1.326007	1.299634
00:00:00.862	1.316484	1.322344	1.305495
00:00:00.862	1.294505	1.304762	1.307692
00:00:00.862	1.305495	1.310623	1.322344
00:00:00.863	1.317949	1.307692	1.311355
00:00:00.863	1.326007	1.324542	1.313553
