timestamp	ch1	ch2	ch3
00:00:00.000	1.312088	1.313553	1.311355
00:00:00.000	1.311355	1.317216	1.306960
00:00:00.001	1.300366	1.306960	1.304029
00:00:00.001	1.312088	1.312821	1.311355
00:00:00.001	1.315751	1.307692	1.312821
00:00:00.002	1.307692	1.287179	1.309890
00:00:00.002	1.312088	1.272527	1.307692
00:00:00.003	1.308425	1.294505	1.310623
00:00:00.003	1.312088	1.317949	1.307692
00:00:00.003	1.308425	1.336264	1.306960
00:00:00.004	1.301832	1.321612	1.300366
00:00:00.004	1.306960	1.292308	1.289377
00:00:00.004	1.307692	1.276923	1.293040
00:00:00.005	1.315018	1.279853	1.297436
00:00:00.005	1.316484	1.279853	1.300366
00:00:00.005	1.311355	1.281319	1.294505
00:00:00.006	1.306227	1.299634	1.306960
00:00:00.006	1.306227	1.299634	1.309890
00:00:00.006	1.309158	1.312821	1.308425
00:00:00.007	1.315751	1.331136	1.307692
00:00:00.007	1.312821	1.333333	1.309158
00:00:00.008	1.303297	1.323810	1.300366
00:00:00.008	1.309890	1.324542	1.309158
00:00:00.008	1.305495	1.312821	1.303297
00:00:00.009	1.311355	1.304762	1.307692
00:00:00.009	1.312088	1.292308	1.306227
00:00:00.009	1.315018	1.289377	1.309158
00:00:00.010	1.310623	1.296703	1.302564
00:00:00.010	1.312821	1.309890	1.303297
00:00:00.011	1.311355	1.306227	1.293040
00:00:00.013	1.304762	1.310623	1.293773
00:00:00.013	1.313553	1.320879	1.307692
00:00:00.013	1.306960	1.315751	1.300366
00:00:00.014	1.312821	1.310623	1.305495
00:00:00.014	1.306227	1.290110	1.296703
00:00:00.014	1.320879	1.306227	1.313553
00:00:00.014	1.311355	1.298901	1.308425
00:00:00.014	1.307692	1.296703	1.315018
00:00:00.015	1.304029	1.304762	1.312821
00:00:00.015	1.300366	1.307692	1.310623
00:00:00.015	1.295971	1.313553	1.309158
00:00:00.015	1.301099	1.318681	1.312821
00:00:00.015	1.293040	1.300366	1.305495
00:00:00.015	1.288645	1.287912	1.287912
00:00:00.048	1.320147	1.304762	1.300366
00:00:00.048	1.323810	1.303297	1.289377
00:00:00.048	1.315751	1.300366	1.295971
00:00:00.052	1.309890	1.312821	1.288645
00:00:00.052	1.309158	1.312821	1.290842
00:00:00.052	1.304762	1.304762	1.302564
00:00:00.052	1.309158	1.297436	1.304029
00:00:00.052	1.305495	1.281319	1.295971
00:00:00.052	1.298901	1.297436	1.295238
00:00:00.052	1.308425	1.324542	1.309158
00:00:00.052	1.311355	1.326007	1.309890
00:00:00.052	1.320879	1.317949	1.319414
00:00:00.052	1.314286	1.297436	1.306227
00:00:00.052	1.302564	1.289377	1.298901
00:00:00.053	1.318681	1.304029	1.304029
00:00:00.053	1.300366	1.286447	1.293773
00:00:00.053	1.301099	1.293040	1.300366
00:00:00.054	1.301832	1.279121	1.294505
00:00:00.054	1.287179	1.284982	1.282784
00:00:00.054	1.323077	1.306227	1.300366
00:00:00.055	1.328938	1.308425	1.299634
00:00:00.055	1.304762	1.304029	1.294505
00:00:00.055	1.312821	1.305495	1.299634
00:00:00.056	1.306227	1.306960	1.300366
00:00:00.056	1.303297	1.311355	1.300366
00:00:00.057	1.309158	1.309890	1.311355
00:00:00.057	1.307692	1.305495	1.304762
00:00:00.057	1.309890	1.301099	1.303297
00:00:00.058	1.305495	1.290842	1.303297
00:00:00.058	1.312821	1.304029	1.309158
00:00:00.058	1.309890	1.301099	1.300366
00:00:00.059	1.315018	1.311355	1.309890
00:00:00.059	1.305495	1.304762	1.304762
00:00:00.059	1.302564	1.309890	1.301832
00:00:00.060	1.304762	1.312821	1.303297
00:00:00.060	1.312088	1.317949	1.299634
00:00:00.060	1.310623	1.317216	1.289377
00:00:00.061	1.315018	1.332601	1.300366
00:00:00.061	1.312821	1.309158	1.296703
00:00:00.062	1.306227	1.288645	1.298901
00:00:00.062	1.317216	1.327473	1.308425
00:00:00.062	1.309158	1.327473	1.309158
00:00:00.063	1.307692	1.309890	1.309158
00:00:00.063	1.306227	1.280586	1.312821
00:00:00.063	1.298168	1.254212	1.297436
00:00:00.064	1.309158	1.254945	1.295971
00:00:00.064	1.312088	1.265934	1.304762
00:00:00.064	1.299634	1.285714	1.306227
00:00:00.065	1.315751	1.309890	1.304029
00:00:00.065	1.307692	1.303297	1.288645
00:00:00.097	1.322344	1.319414	1.298901
00:00:00.098	1.306960	1.316484	1.293773
00:00:00.098	1.306960	1.320147	1.298168
00:00:00.098	1.304762	1.322344	1.300366
00:00:00.099	1.309158	1.328205	1.304029
00:00:00.099	1.299634	1.344322	1.302564
00:00:00.099	1.301832	1.339927	1.305495
00:00:00.100	1.302564	1.316484	1.306960
00:00:00.100	1.308425	1.296703	1.312088
00:00:00.101	1.312088	1.273993	1.304029
00:00:00.101	1.314286	1.275458	1.307692
00:00:00.101	1.309158	1.279853	1.308425
00:00:00.102	1.317216	1.293040	1.312088
00:00:00.102	1.310623	1.287179	1.303297
00:00:00.102	1.301832	1.280586	1.309158
00:00:00.103	1.316484	1.293773	1.304029
00:00:00.103	1.314286	1.312088	1.302564
00:00:00.103	1.307692	1.312821	1.289377
00:00:00.104	1.317216	1.319414	1.295238
00:00:00.104	1.307692	1.304762	1.287179
00:00:00.104	1.318681	1.311355	1.295238
00:00:00.105	1.315018	1.316484	1.297436
00:00:00.105	1.309890	1.312088	1.299634
00:00:00.106	1.314286	1.314286	1.304762
00:00:00.106	1.309158	1.306960	1.304029
00:00:00.106	1.315018	1.312088	1.312821
00:00:00.107	1.304762	1.314286	1.317216
00:00:00.107	1.298901	1.302564	1.309890
00:00:00.107	1.309158	1.309158	1.313553
00:00:00.109	1.300366	1.298901	1.303297
00:00:00.109	1.309890	1.312088	1.310623
00:00:00.109	1.293773	1.326007	1.304762
00:00:00.109	1.298168	1.343590	1.300366
00:00:00.110	1.316484	1.344322	1.304029
00:00:00.110	1.316484	1.317216	1.306960
00:00:00.111	1.312088	1.287179	1.299634
00:00:00.111	1.308425	1.268864	1.289377
00:00:00.112	1.308425	1.268864	1.288645
00:00:00.112	1.306227	1.274725	1.295971
00:00:00.112	1.311355	1.279121	1.304029
00:00:00.112	1.305495	1.268132	1.302564
00:00:00.112	1.318681	1.282784	1.306960
00:00:00.112	1.306227	1.317949	1.302564
00:00:00.116	1.300366	1.353114	1.312088
00:00:00.116	1.305495	1.332601	1.309158
00:00:00.116	1.300366	1.295971	1.311355
00:00:00.116	1.325275	1.294505	1.309158
00:00:00.116	1.315018	1.315751	1.309890
00:00:00.116	1.297436	1.298168	1.294505
00:00:00.116	1.317216	1.306227	1.304029
00:00:00.147	1.313553	1.273993	1.295238
00:00:00.147	1.306960	1.261538	1.297436
00:00:00.148	1.299634	1.282784	1.291575
00:00:00.148	1.306227	1.323077	1.297436
00:00:00.148	1.309890	1.331136	1.300366
00:00:00.149	1.312088	1.334799	1.296703
00:00:00.149	1.319414	1.327473	1.302564
00:00:00.150	1.309158	1.312821	1.302564
00:00:00.150	1.306960	1.304762	1.312821
00:00:00.150	1.306960	1.300366	1.309890
00:00:00.151	1.297436	1.289377	1.306960
00:00:00.151	1.315018	1.305495	1.318681
00:00:00.151	1.306227	1.310623	1.315751
00:00:00.152	1.292308	1.292308	1.300366
00:00:00.152	1.297436	1.273260	1.293040
00:00:00.152	1.306960	1.281319	1.290842
00:00:00.153	1.321612	1.315751	1.304029
00:00:00.153	1.332601	1.344322	1.310623
00:00:00.153	1.305495	1.321612	1.298901
00:00:00.154	1.304029	1.306227	1.294505
00:00:00.154	1.305495	1.304029	1.296703
00:00:00.155	1.310623	1.321612	1.313553
00:00:00.155	1.312088	1.316484	1.309158
00:00:00.155	1.298168	1.298168	1.298901
00:00:00.156	1.300366	1.297436	1.305495
00:00:00.156	1.300366	1.284982	1.293773
00:00:00.156	1.310623	1.298168	1.313553
00:00:00.157	1.319414	1.308425	1.312088
00:00:00.157	1.315751	1.312088	1.313553
00:00:00.157	1.317949	1.313553	1.312821
00:00:00.158	1.307692	1.293040	1.293773
00:00:00.158	1.319414	1.307692	1.304029
00:00:00.159	1.309890	1.310623	1.308425
00:00:00.159	1.310623	1.305495	1.305495
00:00:00.159	1.310623	1.307692	1.303297
00:00:00.160	1.301832	1.299634	1.292308
00:00:00.160	1.315018	1.317216	1.300366
00:00:00.160	1.322344	1.320147	1.306227
00:00:00.161	1.282784	1.304029	1.295971
00:00:00.161	1.287179	1.285714	1.297436
00:00:00.161	1.300366	1.293040	1.302564
00:00:00.162	1.316484	1.304762	1.305495
00:00:00.162	1.323810	1.307692	1.306227
00:00:00.162	1.314286	1.296703	1.300366
00:00:00.163	1.306227	1.299634	1.305495
00:00:00.163	1.312821	1.301832	1.310623
00:00:00.164	1.305495	1.300366	1.309158
00:00:00.164	1.311355	1.304029	1.309890
00:00:00.164	1.310623	1.309158	1.311355
00:00:00.165	1.317216	1.304029	1.306227
00:00:00.197	1.318681	1.303297	1.293040
00:00:00.197	1.310623	1.313553	1.298901
00:00:00.197	1.304762	1.308425	1.294505
00:00:00.198	1.314286	1.317949	1.286447
00:00:00.198	1.316484	1.320879	1.303297
00:00:00.199	1.313553	1.314286	1.306227
00:00:00.200	1.299634	1.303297	1.298168
00:00:00.200	1.301832	1.301099	1.306227
00:00:00.200	1.314286	1.304029	1.306960
00:00:00.200	1.309158	1.306227	1.311355
00:00:00.200	1.311355	1.297436	1.309158
00:00:00.201	1.299634	1.280586	1.300366
00:00:00.201	1.307692	1.297436	1.312088
00:00:00.201	1.309158	1.300366	1.313553
00:00:00.202	1.302564	1.301099	1.310623
00:00:00.202	1.309158	1.305495	1.305495
00:00:00.203	1.306227	1.307692	1.296703
00:00:00.203	1.319414	1.318681	1.299634
00:00:00.203	1.320147	1.315018	1.300366
00:00:00.204	1.309890	1.310623	1.290110
00:00:00.204	1.304762	1.310623	1.296703
00:00:00.204	1.309158	1.312821	1.302564
00:00:00.205	1.309890	1.316484	1.300366
00:00:00.205	1.312821	1.310623	1.298168
00:00:00.205	1.313553	1.306227	1.309890
00:00:00.208	1.310623	1.290842	1.301832
00:00:00.208	1.300366	1.313553	1.307692
00:00:00.208	1.306960	1.358974	1.310623
00:00:00.208	1.307692	1.353846	1.316484
00:00:00.208	1.293040	1.316484	1.312088
00:00:00.208	1.300366	1.292308	1.314286
00:00:00.208	1.298168	1.260806	1.304029
00:00:00.208	1.315751	1.276923	1.310623
00:00:00.209	1.320147	1.289377	1.304762
00:00:00.209	1.306960	1.272527	1.296703
00:00:00.209	1.306960	1.245421	1.296703
00:00:00.212	1.304762	1.245421	1.287912
00:00:00.212	1.310623	1.278388	1.290110
00:00:00.212	1.313553	1.304762	1.298168
00:00:00.212	1.304762	1.320147	1.300366
00:00:00.212	1.319414	1.329670	1.307692
00:00:00.212	1.307692	1.298168	1.300366
00:00:00.212	1.310623	1.313553	1.307692
00:00:00.212	1.299634	1.310623	1.300366
00:00:00.213	1.306227	1.317216	1.310623
00:00:00.213	1.317949	1.316484	1.315018
00:00:00.213	1.301099	1.313553	1.308425
00:00:00.214	1.309158	1.321612	1.312821
00:00:00.214	1.306227	1.320879	1.305495
00:00:00.214	1.298168	1.320147	1.293773
00:00:00.247	1.313553	1.354579	1.305495
00:00:00.247	1.315018	1.325275	1.289377
00:00:00.247	1.323810	1.299634	1.301832
00:00:00.248	1.323810	1.293040	1.295971
00:00:00.248	1.303297	1.309890	1.298901
00:00:00.248	1.312088	1.312821	1.303297
00:00:00.249	1.306227	1.301832	1.309890
00:00:00.249	1.304029	1.282784	1.312821
00:00:00.249	1.290842	1.242491	1.305495
00:00:00.250	1.290842	1.249817	1.300366
00:00:00.250	1.300366	1.291575	1.305495
00:00:00.250	1.323810	1.328938	1.313553
00:00:00.251	1.315018	1.318681	1.312088
00:00:00.252	1.305495	1.303297	1.293773
00:00:00.252	1.313553	1.317949	1.309158
00:00:00.252	1.289377	1.304029	1.300366
00:00:00.252	1.317949	1.318681	1.307692
00:00:00.253	1.306227	1.309890	1.291575
00:00:00.253	1.319414	1.314286	1.300366
00:00:00.253	1.316484	1.311355	1.293773
00:00:00.254	1.310623	1.313553	1.294505
00:00:00.254	1.309890	1.320879	1.304029
00:00:00.254	1.295971	1.307692	1.300366
00:00:00.255	1.309158	1.306960	1.300366
00:00:00.255	1.302564	1.292308	1.296703
00:00:00.255	1.314286	1.298901	1.308425
00:00:00.256	1.312088	1.333333	1.306960
00:00:00.256	1.304029	1.323810	1.315018
00:00:00.257	1.315751	1.302564	1.304029
00:00:00.257	1.324542	1.302564	1.313553
00:00:00.257	1.312821	1.291575	1.304762
00:00:00.258	1.301832	1.285714	1.295238
00:00:00.258	1.309158	1.309158	1.309158
00:00:00.258	1.313553	1.339194	1.305495
00:00:00.259	1.282784	1.324542	1.300366
00:00:00.259	1.291575	1.304762	1.295238
00:00:00.259	1.302564	1.306960	1.298901
00:00:00.260	1.329670	1.300366	1.295971
00:00:00.260	1.320879	1.297436	1.299634
00:00:00.260	1.312088	1.279121	1.304762
00:00:00.261	1.315018	1.254212	1.303297
00:00:00.261	1.312821	1.241758	1.306227
00:00:00.262	1.309890	1.273260	1.309158
00:00:00.262	1.310623	1.276923	1.309158
00:00:00.262	1.304029	1.302564	1.306960
00:00:00.263	1.306227	1.351648	1.308425
00:00:00.263	1.313553	1.358974	1.312088
00:00:00.263	1.318681	1.330403	1.307692
00:00:00.264	1.314286	1.307692	1.309158
00:00:00.264	1.318681	1.306227	1.311355
00:00:00.296	1.302564	1.293040	1.293040
00:00:00.297	1.291575	1.280586	1.298168
00:00:00.297	1.328205	1.268132	1.290842
00:00:00.297	1.330403	1.259341	1.298901
00:00:00.298	1.254212	1.282784	1.298901
00:00:00.298	1.284982	1.313553	1.291575
00:00:00.298	1.323077	1.324542	1.304029
00:00:00.299	1.313553	1.323810	1.304029
00:00:00.299	1.336996	1.331136	1.309890
00:00:00.299	1.315018	1.324542	1.306227
00:00:00.300	1.313553	1.327473	1.299634
00:00:00.300	1.304029	1.343590	1.318681
00:00:00.301	1.299634	1.315751	1.312088
00:00:00.301	1.287912	1.291575	1.308425
00:00:00.301	1.293773	1.297436	1.306227
00:00:00.304	1.300366	1.292308	1.291575
00:00:00.304	1.323810	1.306960	1.304762
00:00:00.304	1.320147	1.305495	1.304762
00:00:00.304	1.304762	1.280586	1.289377
00:00:00.304	1.313553	1.268864	1.294505
00:00:00.304	1.313553	1.274725	1.295971
00:00:00.304	1.306227	1.299634	1.295971
00:00:00.304	1.309158	1.323810	1.304762
00:00:00.304	1.307692	1.315751	1.295971
00:00:00.308	1.314286	1.317216	1.307692
00:00:00.308	1.314286	1.300366	1.298168
00:00:00.308	1.320879	1.307692	1.312088
00:00:00.308	1.320147	1.312821	1.309890
00:00:00.308	1.300366	1.300366	1.309890
00:00:00.308	1.295238	1.309158	1.304762
00:00:00.308	1.291575	1.292308	1.300366
00:00:00.308	1.304029	1.298168	1.308425
00:00:00.308	1.322344	1.309158	1.304029
00:00:00.308	1.303297	1.304762	1.298168
00:00:00.308	1.312088	1.309890	1.300366
00:00:00.309	1.303297	1.309890	1.295971
00:00:00.309	1.309158	1.313553	1.300366
00:00:00.309	1.312088	1.312821	1.305495
00:00:00.310	1.313553	1.298168	1.294505
00:00:00.310	1.327473	1.308425	1.300366
00:00:00.311	1.334066	1.312821	1.303297
00:00:00.311	1.323810	1.321612	1.314286
00:00:00.311	1.317216	1.315018	1.309158
00:00:00.312	1.293773	1.298901	1.301832
00:00:00.312	1.296703	1.318681	1.307692
00:00:00.312	1.297436	1.317216	1.300366
00:00:00.313	1.293040	1.323077	1.310623
00:00:00.313	1.290110	1.312088	1.310623
00:00:00.313	1.282784	1.293040	1.303297
00:00:00.314	1.303297	1.303297	1.309158
00:00:00.346	1.314286	1.306227	1.292308
00:00:00.346	1.327473	1.319414	1.300366
00:00:00.347	1.338462	1.308425	1.294505
00:00:00.347	1.312821	1.284982	1.293040
00:00:00.347	1.306960	1.282784	1.298901
00:00:00.348	1.304762	1.293040	1.300366
00:00:00.348	1.294505	1.306960	1.304762
00:00:00.348	1.282051	1.292308	1.300366
00:00:00.349	1.284249	1.259341	1.294505
00:00:00.349	1.306227	1.277656	1.309158
00:00:00.350	1.309890	1.285714	1.312088
00:00:00.350	1.314286	1.284982	1.310623
00:00:00.350	1.317949	1.293773	1.303297
00:00:00.351	1.319414	1.301832	1.310623
00:00:00.351	1.319414	1.311355	1.309158
00:00:00.351	1.318681	1.315751	1.309158
00:00:00.352	1.320879	1.342857	1.313553
00:00:00.352	1.308425	1.352381	1.304762
00:00:00.352	1.284249	1.343590	1.300366
00:00:00.353	1.306960	1.321612	1.293040
00:00:00.353	1.300366	1.303297	1.287912
00:00:00.353	1.312821	1.318681	1.297436
00:00:00.354	1.300366	1.309158	1.309158
00:00:00.354	1.297436	1.309158	1.297436
00:00:00.355	1.317949	1.322344	1.300366
00:00:00.355	1.326007	1.298168	1.310623
00:00:00.356	1.325275	1.268132	1.306960
00:00:00.356	1.326007	1.259341	1.309158
00:00:00.356	1.290842	1.265201	1.309158
00:00:00.356	1.294505	1.282784	1.309158
00:00:00.357	1.298168	1.290110	1.298901
00:00:00.357	1.323077	1.312088	1.314286
00:00:00.357	1.333333	1.308425	1.306960
00:00:00.358	1.346520	1.300366	1.295971
00:00:00.358	1.325275	1.314286	1.293040
00:00:00.359	1.298901	1.320879	1.286447
00:00:00.359	1.331136	1.336264	1.303297
00:00:00.359	1.290842	1.315751	1.303297
00:00:00.360	1.272527	1.317216	1.306960
00:00:00.360	1.287912	1.329670	1.312088
00:00:00.360	1.322344	1.332601	1.298168
00:00:00.361	1.312088	1.339927	1.311355
00:00:00.361	1.311355	1.317216	1.306227
00:00:00.361	1.300366	1.304029	1.298168
00:00:00.362	1.308425	1.316484	1.309158
00:00:00.362	1.318681	1.267399	1.300366
00:00:00.362	1.322344	1.246154	1.298168
00:00:00.363	1.315018	1.259341	1.306227
00:00:00.363	1.312088	1.262271	1.309158
00:00:00.364	1.312088	1.262271	1.302564
00:00:00.396	1.301099	1.276923	1.288645
00:00:00.396	1.301099	1.301832	1.298168
00:00:00.396	1.308425	1.318681	1.300366
00:00:00.397	1.309890	1.326740	1.299634
00:00:00.397	1.309158	1.323077	1.285714
00:00:00.398	1.309158	1.328938	1.300366
00:00:00.398	1.316484	1.323810	1.306960
00:00:00.398	1.301099	1.312088	1.303297
00:00:00.401	1.298901	1.314286	1.304762
00:00:00.401	1.298168	1.304029	1.309890
00:00:00.401	1.311355	1.300366	1.309158
00:00:00.401	1.316484	1.297436	1.306227
00:00:00.401	1.314286	1.298901	1.311355
00:00:00.401	1.327473	1.327473	1.318681
00:00:00.401	1.304762	1.341392	1.318681
00:00:00.401	1.289377	1.331868	1.305495
00:00:00.401	1.293773	1.337729	1.306227
00:00:00.405	1.306227	1.345788	1.300366
00:00:00.405	1.305495	1.316484	1.287179
00:00:00.405	1.303297	1.309890	1.297436
00:00:00.405	1.323810	1.279121	1.295238
00:00:00.405	1.331136	1.253480	1.296703
00:00:00.405	1.288645	1.282784	1.300366
00:00:00.405	1.205128	1.299634	1.293773
00:00:00.405	1.281319	1.302564	1.307692
00:00:00.405	1.353114	1.293040	1.312088
00:00:00.405	1.361905	1.300366	1.308425
00:00:00.405	1.409524	1.331136	1.317216
00:00:00.406	1.383150	1.319414	1.302564
00:00:00.406	1.331136	1.298901	1.302564
00:00:00.406	1.289377	1.279121	1.296703
00:00:00.407	1.238828	1.276923	1.304762
00:00:00.407	1.240293	1.265201	1.300366
00:00:00.408	1.326007	1.295971	1.300366
00:00:00.408	1.356044	1.383150	1.275458
00:00:00.408	1.361172	1.397802	1.285714
00:00:00.409	1.345788	1.361905	1.287912
00:00:00.409	1.335531	1.308425	1.300366
00:00:00.409	1.287179	1.278388	1.290110
00:00:00.410	1.273993	1.249084	1.293040
00:00:00.410	1.262271	1.253480	1.282784
00:00:00.410	1.262271	1.241026	1.278388
00:00:00.411	1.306227	1.238828	1.322344
00:00:00.411	1.299634	1.230037	1.398535
00:00:00.411	1.269597	1.209524	1.328938
00:00:00.412	1.288645	1.276923	1.342857
00:00:00.412	1.323810	1.323077	1.313553
00:00:00.413	1.307692	1.330403	1.292308
00:00:00.413	1.319414	1.345055	1.306227
00:00:00.413	1.230769	1.326740	1.287179
00:00:00.445	1.169963	1.353114	1.298168
00:00:00.446	1.278388	1.324542	1.288645
00:00:00.446	1.390476	1.305495	1.298901
00:00:00.447	1.499634	1.317949	1.290842
00:00:00.447	1.558242	1.367766	1.287179
00:00:00.447	1.534066	1.423443	1.299634
00:00:00.448	1.405861	1.447619	1.308425
00:00:00.448	1.276923	1.395604	1.314286
00:00:00.448	1.167766	1.312821	1.316484
00:00:00.449	1.150916	1.258608	1.288645
00:00:00.449	1.218315	1.256410	1.261538
00:00:00.449	1.247619	1.243956	1.258608
00:00:00.450	1.353114	1.209524	1.290842
00:00:00.450	1.290842	1.189011	1.351648
00:00:00.450	1.201465	1.225641	1.345788
00:00:00.451	1.200000	1.236630	1.339927
00:00:00.451	1.257143	1.294505	1.279121
00:00:00.452	1.283516	1.330403	1.261538
00:00:00.452	1.324542	1.351648	1.265201
00:00:00.452	1.338462	1.346520	1.294505
00:00:00.453	1.345788	1.327473	1.298901
00:00:00.453	1.365568	1.306960	1.283516
00:00:00.453	1.394872	1.309890	1.318681
00:00:00.454	1.332601	1.326007	1.350183
00:00:00.454	1.269597	1.336264	1.381685
00:00:00.454	1.291575	1.325275	1.323810
00:00:00.455	1.292308	1.320147	1.347253
00:00:00.455	1.354579	1.317949	1.298901
00:00:00.455	1.342857	1.304029	1.283516
00:00:00.456	1.312088	1.304029	1.280586
00:00:00.456	1.290842	1.301832	1.299634
00:00:00.457	1.236630	1.316484	1.292308
00:00:00.457	1.265201	1.329670	1.292308
00:00:00.457	1.306227	1.320879	1.287179
00:00:00.458	1.344322	1.321612	1.304029
00:00:00.458	1.337729	1.290842	1.290842
00:00:00.458	1.299634	1.285714	1.273993
00:00:00.459	1.306960	1.383883	1.292308
00:00:00.459	1.293040	1.534066	1.304029
00:00:00.459	1.283516	1.449084	1.317949
00:00:00.461	1.276190	1.288645	1.298168
00:00:00.461	1.309890	1.279121	1.302564
00:00:00.461	1.336996	1.196337	1.310623
00:00:00.461	1.370696	1.097436	1.312821
00:00:00.461	1.358974	1.129670	1.311355
00:00:00.462	1.367766	1.170696	1.313553
00:00:00.462	1.326740	1.186081	1.300366
00:00:00.462	1.304029	1.207326	1.290110
00:00:00.465	1.297436	1.234432	1.278388
00:00:00.465	1.295971	1.317216	1.295971
00:00:00.495	1.302564	1.363370	1.300366
00:00:00.497	1.307692	1.385348	1.287179
00:00:00.497	1.310623	1.385348	1.309158
00:00:00.497	1.310623	1.385348	1.291575
00:00:00.497	1.317216	1.385348	1.303297
00:00:00.497	1.274725	1.295971	1.290110
00:00:00.497	1.234432	1.263736	1.289377
00:00:00.501	1.279853	1.280586	1.304029
00:00:00.501	1.320879	1.283516	1.309158
00:00:00.501	1.306227	1.327473	1.323810
00:00:00.501	1.341392	1.300366	1.315018
00:00:00.501	1.345055	1.271795	1.292308
00:00:00.501	1.397070	1.331868	1.309158
00:00:00.501	1.372161	1.358242	1.306227
00:00:00.501	1.351648	1.334066	1.298901
00:00:00.501	1.265201	1.319414	1.306960
00:00:00.501	1.138462	1.294505	1.303297
00:00:00.501	1.193407	1.271062	1.304762
00:00:00.502	1.336996	1.306227	1.330403
00:00:00.502	1.484249	1.344322	1.329670
00:00:00.502	1.473260	1.310623	1.287179
00:00:00.503	1.391941	1.302564	1.248352
00:00:00.503	1.281319	1.293773	1.255678
00:00:00.503	1.140659	1.276923	1.260806
00:00:00.504	1.109158	1.293040	1.316484
00:00:00.504	1.147985	1.310623	1.356044
00:00:00.504	1.217582	1.304762	1.375092
00:00:00.505	1.302564	1.275458	1.328205
00:00:00.505	1.375824	1.264469	1.311355
00:00:00.506	1.387546	1.280586	1.282051
00:00:00.506	1.378022	1.328938	1.293773
00:00:00.506	1.337729	1.317949	1.296703
00:00:00.507	1.376557	1.291575	1.300366
00:00:00.507	1.361905	1.338462	1.326740
00:00:00.507	1.358974	1.441758	1.318681
00:00:00.508	1.328938	1.401465	1.293773
00:00:00.508	1.305495	1.326007	1.281319
00:00:00.508	1.300366	1.248352	1.284249
00:00:00.509	1.295238	1.230037	1.311355
00:00:00.509	1.271795	1.273993	1.316484
00:00:00.509	1.242491	1.350183	1.315751
00:00:00.510	1.209524	1.258608	1.297436
00:00:00.510	1.218315	1.217582	1.290110
00:00:00.511	1.298901	1.275458	1.305495
00:00:00.511	1.376557	1.304029	1.323810
00:00:00.511	1.460073	1.296703	1.323077
00:00:00.512	1.410256	1.268132	1.317216
00:00:00.513	1.334066	1.252015	1.309890
00:00:00.513	1.323810	1.281319	1.307692
00:00:00.513	1.349451	1.341392	1.303297
00:00:00.545	1.268132	1.471062	1.287179
00:00:00.545	1.245421	1.590476	1.293773
00:00:00.546	1.271062	1.602930	1.312821
00:00:00.546	1.297436	1.506960	1.308425
00:00:00.546	1.341392	1.377289	1.284982
00:00:00.547	1.361172	1.270330	1.288645
00:00:00.547	1.334066	1.183150	1.288645
00:00:00.547	1.269597	1.131136	1.304762
00:00:00.548	1.224176	1.012454	1.300366
00:00:00.548	1.209524	0.952381	1.293773
00:00:00.548	1.272527	1.041758	1.295971
00:00:00.549	1.298901	1.202198	1.308425
00:00:00.549	1.333333	1.346520	1.339194
00:00:00.550	1.336996	1.358242	1.312088
00:00:00.550	1.342857	1.344322	1.291575
00:00:00.550	1.353846	1.293040	1.298901
00:00:00.551	1.329670	1.334799	1.295971
00:00:00.551	1.320879	1.342125	1.302564
00:00:00.551	1.331136	1.344322	1.311355
00:00:00.552	1.306227	1.340659	1.300366
00:00:00.552	1.287912	1.312088	1.295238
00:00:00.552	1.309890	1.282784	1.296703
00:00:00.553	1.305495	1.292308	1.310623
00:00:00.553	1.336996	1.311355	1.312821
00:00:00.553	1.351648	1.309158	1.303297
00:00:00.555	1.328938	1.314286	1.289377
00:00:00.555	1.319414	1.318681	1.298901
00:00:00.555	1.305495	1.333333	1.295971
00:00:00.555	1.283516	1.347253	1.295238
00:00:00.555	1.279121	1.362637	1.307692
00:00:00.557	1.237363	1.353114	1.296703
00:00:00.557	1.271062	1.378022	1.313553
00:00:00.557	1.285714	1.421245	1.312088
00:00:00.559	1.293040	1.446154	1.306227
00:00:00.559	1.347253	1.410256	1.313553
00:00:00.559	1.279121	1.329670	1.319414
00:00:00.559	1.261538	1.219048	1.300366
00:00:00.559	1.347985	1.180952	1.302564
00:00:00.559	1.424908	1.180952	1.295238
00:00:00.560	1.454945	1.192674	1.309158
00:00:00.560	1.442491	1.236630	1.302564
00:00:00.560	1.408059	1.301832	1.284249
00:00:00.560	1.259341	1.356044	1.286447
00:00:00.560	1.229304	1.346520	1.282784
00:00:00.561	1.262271	1.340659	1.283516
00:00:00.565	1.305495	1.319414	1.300366
00:00:00.565	1.315018	1.290110	1.306227
00:00:00.565	1.302564	1.295971	1.322344
00:00:00.565	1.222711	1.280586	1.308425
00:00:00.565	1.178755	1.277656	1.309158
00:00:00.596	1.253480	1.298901	1.299634
00:00:00.596	1.322344	1.316484	1.300366
00:00:00.596	1.333333	1.315751	1.305495
00:00:00.596	1.350916	1.313553	1.313553
00:00:00.597	1.347253	1.293773	1.298168
00:00:00.597	1.331868	1.293773	1.298901
00:00:00.597	1.306960	1.318681	1.297436
00:00:00.597	1.291575	1.408791	1.306960
00:00:00.597	1.230037	1.432967	1.299634
00:00:00.598	1.281319	1.437363	1.290842
00:00:00.598	1.313553	1.362637	1.286447
00:00:00.599	1.278388	1.300366	1.300366
00:00:00.599	1.291575	1.236630	1.323077
00:00:00.599	1.312088	1.218315	1.350916
00:00:00.600	1.298901	1.142125	1.318681
00:00:00.600	1.319414	1.178755	1.300366
00:00:00.600	1.292308	1.241026	1.284982
00:00:00.601	1.292308	1.304762	1.306960
00:00:00.601	1.318681	1.300366	1.307692
00:00:00.601	1.363370	1.338462	1.309890
00:00:00.602	1.448352	1.362637	1.300366
00:00:00.602	1.491575	1.389744	1.296703
00:00:00.602	1.397802	1.455678	1.293040
00:00:00.603	1.315018	1.521612	1.311355
00:00:00.603	1.240293	1.364835	1.292308
00:00:00.604	1.197070	1.142857	1.286447
00:00:00.604	1.202198	1.150183	1.282051
00:00:00.604	1.221978	1.347253	1.294505
00:00:00.605	1.205861	1.458608	1.306227
00:00:00.605	1.262271	1.328205	1.297436
00:00:00.605	1.321612	1.158242	1.304029
00:00:00.606	1.356044	1.065934	1.304029
00:00:00.606	1.335531	1.104762	1.290842
00:00:00.606	1.362637	1.212454	1.312821
00:00:00.607	1.347985	1.242491	1.297436
00:00:00.607	1.315018	1.172161	1.299634
00:00:00.607	1.268864	1.207326	1.294505
00:00:00.608	1.317216	1.327473	1.288645
00:00:00.608	1.352381	1.421978	1.312088
00:00:00.609	1.323810	1.424908	1.316484
00:00:00.609	1.298901	1.402198	1.292308
00:00:00.609	1.304029	1.373626	1.304762
00:00:00.610	1.303297	1.386081	1.300366
00:00:00.610	1.298168	1.391941	1.290110
00:00:00.610	1.317949	1.380952	1.309890
00:00:00.611	1.328205	1.339927	1.316484
00:00:00.611	1.311355	1.279853	1.308425
00:00:00.611	1.308425	1.263004	1.305495
00:00:00.612	1.310623	1.271795	1.304762
00:00:00.612	1.310623	1.287179	1.315018
00:00:00.644	1.300366	1.221978	1.295971
00:00:00.645	1.317949	1.244689	1.307692
00:00:00.645	1.318681	1.317216	1.309890
00:00:00.645	1.315751	1.328205	1.298168
00:00:00.646	1.321612	1.330403	1.293040
00:00:00.646	1.309158	1.315018	1.294505
00:00:00.646	1.308425	1.309890	1.301832
00:00:00.647	1.319414	1.304762	1.301832
00:00:00.647	1.314286	1.317216	1.300366
00:00:00.648	1.301832	1.322344	1.304762
00:00:00.648	1.295971	1.332601	1.301832
00:00:00.649	1.295971	1.346520	1.306227
00:00:00.649	1.299634	1.346520	1.315018
00:00:00.649	1.306227	1.326740	1.311355
00:00:00.649	1.300366	1.300366	1.309890
00:00:00.650	1.296703	1.279853	1.293773
00:00:00.650	1.306227	1.268132	1.290842
00:00:00.650	1.327473	1.284249	1.300366
00:00:00.651	1.319414	1.267399	1.279853
00:00:00.651	1.309158	1.282784	1.280586
00:00:00.651	1.308425	1.294505	1.293040
00:00:00.652	1.315018	1.300366	1.292308
00:00:00.652	1.364835	1.334799	1.305495
00:00:00.655	1.343590	1.344322	1.309158
00:00:00.655	1.294505	1.316484	1.304029
00:00:00.655	1.287179	1.325275	1.313553
00:00:00.655	1.257143	1.308425	1.307692
00:00:00.655	1.253480	1.293773	1.303297
00:00:00.655	1.265934	1.298168	1.307692
00:00:00.657	1.288645	1.332601	1.311355
00:00:00.657	1.284982	1.347985	1.309158
00:00:00.657	1.327473	1.398535	1.320147
00:00:00.657	1.366300	1.441026	1.298168
00:00:00.657	1.334066	1.393407	1.308425
00:00:00.657	1.298168	1.258608	1.300366
00:00:00.657	1.284982	1.194139	1.304029
00:00:00.657	1.274725	1.128938	1.283516
00:00:00.661	1.315751	1.134799	1.295971
00:00:00.661	1.350916	1.150916	1.298901
00:00:00.661	1.322344	1.194872	1.297436
00:00:00.661	1.298168	1.253480	1.279121
00:00:00.661	1.248352	1.319414	1.295238
00:00:00.661	1.268132	1.374359	1.300366
00:00:00.661	1.306227	1.358242	1.295238
00:00:00.661	1.384615	1.353846	1.298901
00:00:00.661	1.400000	1.363370	1.304029
00:00:00.661	1.353846	1.349451	1.315018
00:00:00.661	1.296703	1.336996	1.312821
00:00:00.662	1.238828	1.326740	1.295238
00:00:00.662	1.246886	1.334066	1.320879
00:00:00.694	1.285714	1.328938	1.312821
00:00:00.694	1.363370	1.336264	1.302564
00:00:00.695	1.383150	1.327473	1.303297
00:00:00.695	1.382418	1.313553	1.290842
00:00:00.695	1.362637	1.307692	1.305495
00:00:00.696	1.307692	1.264469	1.298168
00:00:00.696	1.253480	1.235165	1.304029
00:00:00.697	1.202930	1.266667	1.300366
00:00:00.697	1.216850	1.315751	1.296703
00:00:00.697	1.257143	1.336264	1.300366
00:00:00.698	1.324542	1.319414	1.307692
00:00:00.698	1.362637	1.368498	1.315751
00:00:00.698	1.336996	1.366300	1.309890
00:00:00.699	1.306960	1.328205	1.295238
00:00:00.699	1.316484	1.300366	1.319414
00:00:00.699	1.318681	1.263736	1.310623
00:00:00.700	1.308425	1.236630	1.300366
00:00:00.700	1.315751	1.238095	1.309890
00:00:00.701	1.322344	1.263736	1.307692
00:00:00.701	1.326740	1.281319	1.303297
00:00:00.701	1.321612	1.328938	1.296703
00:00:00.702	1.303297	1.352381	1.295238
00:00:00.702	1.309158	1.336264	1.298168
00:00:00.702	1.291575	1.295238	1.285714
00:00:00.703	1.303297	1.295238	1.295238
00:00:00.703	1.313553	1.265201	1.287912
00:00:00.703	1.301832	1.261538	1.293040
00:00:00.704	1.319414	1.295238	1.313553
00:00:00.704	1.323810	1.306960	1.298168
00:00:00.704	1.327473	1.338462	1.317949
00:00:00.705	1.321612	1.375092	1.313553
00:00:00.705	1.309158	1.351648	1.309158
00:00:00.706	1.306960	1.344322	1.309158
00:00:00.706	1.276923	1.328205	1.312821
00:00:00.706	1.292308	1.327473	1.297436
00:00:00.707	1.291575	1.243956	1.290842
00:00:00.707	1.300366	1.186813	1.286447
00:00:00.707	1.304029	1.219048	1.298901
00:00:00.708	1.313553	1.293040	1.291575
00:00:00.708	1.317216	1.317949	1.296703
00:00:00.708	1.321612	1.288645	1.302564
00:00:00.709	1.329670	1.293773	1.302564
00:00:00.709	1.317949	1.312821	1.298901
00:00:00.709	1.312821	1.337729	1.304762
00:00:00.710	1.298168	1.329670	1.314286
00:00:00.710	1.272527	1.290842	1.290110
00:00:00.711	1.274725	1.287179	1.298168
00:00:00.711	1.291575	1.302564	1.307692
00:00:00.711	1.293040	1.320147	1.306960
00:00:00.712	1.287179	1.337729	1.294505
00:00:00.744	1.306227	1.342857	1.307692
00:00:00.744	1.336996	1.314286	1.294505
00:00:00.744	1.322344	1.316484	1.315018
00:00:00.745	1.357509	1.306960	1.297436
00:00:00.746	1.421978	1.299634	1.298901
00:00:00.746	1.529670	1.331136	1.297436
00:00:00.746	1.474725	1.327473	1.290110
00:00:00.746	1.358242	1.314286	1.297436
00:00:00.747	1.263004	1.298168	1.307692
00:00:00.747	1.184615	1.307692	1.306227
00:00:00.747	1.083516	1.313553	1.302564
00:00:00.748	1.079121	1.282784	1.300366
00:00:00.748	1.120147	1.301832	1.316484
00:00:00.748	1.231502	1.274725	1.316484
00:00:00.749	1.366300	1.279121	1.323810
00:00:00.749	1.384615	1.294505	1.328205
00:00:00.750	1.327473	1.304029	1.328205
00:00:00.750	1.277656	1.298168	1.313553
00:00:00.750	1.294505	1.273993	1.297436
00:00:00.751	1.320879	1.282051	1.295971
00:00:00.751	1.360440	1.304029	1.290842
00:00:00.751	1.356044	1.316484	1.284249
00:00:00.753	1.343590	1.361905	1.303297
00:00:00.753	1.335531	1.352381	1.297436
00:00:00.753	1.324542	1.302564	1.290842
00:00:00.753	1.319414	1.318681	1.293773
00:00:00.753	1.306960	1.327473	1.300366
00:00:00.753	1.319414	1.309890	1.300366
00:00:00.757	1.315018	1.252015	1.306960
00:00:00.757	1.307692	1.244689	1.302564
00:00:00.757	1.307692	1.243223	1.302564
00:00:00.757	1.311355	1.279853	1.300366
00:00:00.757	1.313553	1.329670	1.309890
00:00:00.757	1.317216	1.319414	1.298168
00:00:00.757	1.320879	1.314286	1.306960
00:00:00.757	1.319414	1.303297	1.309158
00:00:00.757	1.309158	1.294505	1.299634
00:00:00.757	1.317216	1.296703	1.299634
00:00:00.757	1.308425	1.308425	1.303297
00:00:00.758	1.320879	1.314286	1.302564
00:00:00.758	1.313553	1.310623	1.299634
00:00:00.758	1.298901	1.312821	1.297436
00:00:00.759	1.310623	1.318681	1.297436
00:00:00.759	1.312088	1.332601	1.297436
00:00:00.760	1.304762	1.346520	1.305495
00:00:00.760	1.311355	1.386813	1.311355
00:00:00.760	1.300366	1.405128	1.317216
00:00:00.761	1.299634	1.383150	1.309158
00:00:00.761	1.310623	1.372894	1.306227
00:00:00.761	1.309158	1.288645	1.305495
00:00:00.794	1.309158	1.230769	1.305495
00:00:00.794	1.306227	1.194872	1.308425
00:00:00.794	1.295971	1.163370	1.304029
00:00:00.795	1.293040	1.183150	1.300366
00:00:00.795	1.306227	1.223443	1.300366
00:00:00.795	1.311355	1.263736	1.300366
00:00:00.796	1.312088	1.284249	1.295238
00:00:00.796	1.320147	1.295238	1.294505
00:00:00.796	1.318681	1.337729	1.295971
00:00:00.797	1.313553	1.364835	1.309890
00:00:00.797	1.313553	1.394872	1.304762
00:00:00.797	1.315751	1.402930	1.311355
00:00:00.798	1.317949	1.358242	1.317949
00:00:00.798	1.294505	1.307692	1.304029
00:00:00.799	1.290110	1.323810	1.304029
00:00:00.799	1.293040	1.306227	1.304029
00:00:00.799	1.311355	1.259341	1.315018
00:00:00.800	1.327473	1.235165	1.309890
00:00:00.800	1.323810	1.252015	1.315018
00:00:00.800	1.300366	1.337729	1.301832
00:00:00.801	1.294505	1.347253	1.297436
00:00:00.801	1.285714	1.238828	1.286447
00:00:00.801	1.301832	1.227839	1.279853
00:00:00.802	1.331136	1.300366	1.300366
00:00:00.802	1.336264	1.334799	1.295971
00:00:00.802	1.326740	1.296703	1.295971
00:00:00.803	1.315018	1.293040	1.284982
00:00:00.803	1.280586	1.301832	1.297436
00:00:00.804	1.287912	1.334799	1.308425
00:00:00.804	1.282784	1.353114	1.300366
00:00:00.804	1.306227	1.345055	1.300366
00:00:00.805	1.335531	1.349451	1.312821
00:00:00.806	1.356777	1.312821	1.298168
00:00:00.806	1.381685	1.356044	1.312088
00:00:00.806	1.353114	1.358974	1.299634
00:00:00.806	1.317216	1.335531	1.302564
00:00:00.806	1.300366	1.298901	1.298901
00:00:00.807	1.297436	1.282051	1.300366
00:00:00.807	1.273260	1.273993	1.303297
00:00:00.807	1.256410	1.230037	1.304762
00:00:00.808	1.214652	1.188278	1.293040
00:00:00.808	1.246886	1.238095	1.297436
00:00:00.809	1.298901	1.298168	1.302564
00:00:00.809	1.313553	1.317216	1.301832
00:00:00.810	1.326007	1.318681	1.307692
00:00:00.810	1.334066	1.317949	1.303297
00:00:00.810	1.317949	1.320147	1.301832
00:00:00.810	1.320879	1.322344	1.312088
00:00:00.811	1.320879	1.319414	1.314286
00:00:00.812	1.316484	1.317949	1.304762
00:00:00.843	1.318681	1.320147	1.306960
00:00:00.844	1.300366	1.290842	1.289377
00:00:00.844	1.312088	1.304762	1.309158
00:00:00.844	1.317216	1.306227	1.298901
00:00:00.847	1.309158	1.317216	1.304762
00:00:00.847	1.309890	1.322344	1.303297
00:00:00.847	1.307692	1.321612	1.287179
00:00:00.847	1.322344	1.336264	1.297436
00:00:00.847	1.325275	1.341392	1.303297
00:00:00.847	1.338462	1.318681	1.297436
00:00:00.849	1.334066	1.294505	1.306227
00:00:00.849	1.306227	1.263004	1.294505
00:00:00.849	1.311355	1.283516	1.309158
00:00:00.849	1.294505	1.287179	1.297436
00:00:00.849	1.282784	1.288645	1.310623
00:00:00.849	1.283516	1.276190	1.307692
00:00:00.849	1.288645	1.279121	1.293040
00:00:00.849	1.290842	1.298168	1.300366
00:00:00.853	1.295971	1.369231	1.290110
00:00:00.853	1.284982	1.389011	1.293773
00:00:00.853	1.300366	1.388278	1.298901
00:00:00.853	1.307692	1.308425	1.300366
00:00:00.853	1.327473	1.265201	1.302564
00:00:00.853	1.318681	1.232234	1.293773
00:00:00.853	1.320147	1.227839	1.304762
00:00:00.853	1.331136	1.249084	1.304029
00:00:00.853	1.336264	1.258608	1.300366
00:00:00.853	1.338462	1.268132	1.300366
00:00:00.853	1.309158	1.296703	1.298168
00:00:00.854	1.288645	1.299634	1.310623
00:00:00.854	1.284249	1.287912	1.313553
00:00:00.854	1.284982	1.350183	1.318681
00:00:00.855	1.283516	1.413919	1.310623
00:00:00.855	1.309890	1.389744	1.313553
00:00:00.855	1.339194	1.335531	1.317949
00:00:00.856	1.347253	1.304762	1.302564
00:00:00.856	1.332601	1.252015	1.287912
00:00:00.856	1.323077	1.258608	1.304762
00:00:00.858	1.307692	1.247619	1.285714
00:00:00.858	1.308425	1.230769	1.295238
00:00:00.858	1.301832	1.267399	1.298901
00:00:00.858	1.292308	1.286447	1.291575
00:00:00.858	1.308425	1.295971	1.296703
00:00:00.859	1.310623	1.327473	1.294505
00:00:00.859	1.297436	1.356044	1.306227
00:00:00.859	1.296703	1.333333	1.304029
00:00:00.860	1.285714	1.317949	1.298168
00:00:00.860	1.309890	1.336264	1.315018
00:00:00.860	1.308425	1.288645	1.306960
00:00:00.861	1.281319	1.260073	1.311355
00:00:00.893	1.298168	1.270330	1.307692
00:00:00.893	1.300366	1.295238	1.306960
00:00:00.894	1.329670	1.328205	1.306960
00:00:00.894	1.370696	1.344322	1.298901
00:00:00.894	1.356044	1.331868	1.300366
00:00:00.895	1.310623	1.318681	1.298901
