timestamp	ch1	ch2	ch3
00:00:00.000	1.397070	1.402930	1.327473
00:00:00.000	1.331136	1.434432	1.322344
00:00:00.001	1.309890	1.400733	1.321612
00:00:00.001	1.305495	1.335531	1.311355
00:00:00.002	1.311355	1.269597	1.300366
00:00:00.002	1.291575	1.208791	1.288645
00:00:00.002	1.317216	1.209524	1.295238
00:00:00.003	1.320147	1.219048	1.290110
00:00:00.003	1.297436	1.171429	1.283516
00:00:00.003	1.288645	1.199267	1.285714
00:00:00.004	1.290842	1.271795	1.295238
00:00:00.004	1.271795	1.312821	1.299634
00:00:00.004	1.262271	1.307692	1.303297
00:00:00.005	1.270330	1.328938	1.308425
00:00:00.005	1.293040	1.388278	1.330403
00:00:00.005	1.279121	1.332601	1.317216
00:00:00.006	1.299634	1.316484	1.323810
00:00:00.006	1.262271	1.359707	1.323810
00:00:00.007	1.298168	1.407326	1.311355
00:00:00.007	1.339927	1.435897	1.313553
00:00:00.007	1.421245	1.451282	1.308425
00:00:00.008	1.496703	1.355311	1.306960
00:00:00.008	1.446886	1.288645	1.300366
00:00:00.008	1.345788	1.246154	1.300366
00:00:00.009	1.254212	1.213919	1.290842
00:00:00.009	1.216117	1.226374	1.289377
00:00:00.009	1.204396	1.194872	1.279853
00:00:00.010	1.227839	1.205128	1.297436
00:00:00.010	1.228571	1.236630	1.303297
00:00:00.010	1.279121	1.247619	1.299634
00:00:00.011	1.279853	1.288645	1.317216
00:00:00.011	1.279853	1.276923	1.315018
00:00:00.012	1.345055	1.298901	1.313553
00:00:00.012	1.405128	1.391209	1.308425
00:00:00.012	1.433700	1.426374	1.319414
00:00:00.013	1.368498	1.364103	1.306227
00:00:00.013	1.297436	1.355311	1.315018
00:00:00.013	1.258608	1.313553	1.309158
00:00:00.014	1.248352	1.304029	1.302564
00:00:00.014	1.302564	1.330403	1.302564
00:00:00.014	1.326740	1.329670	1.284982
00:00:00.015	1.309890	1.308425	1.293773
00:00:00.015	1.322344	1.321612	1.300366
00:00:00.015	1.279853	1.282784	1.293040
00:00:00.016	1.281319	1.300366	1.296703
00:00:00.016	1.298901	1.308425	1.300366
00:00:00.017	1.306960	1.282784	1.303297
00:00:00.017	1.337729	1.298901	1.325275
00:00:00.017	1.402198	1.306227	1.329670
00:00:00.018	1.336996	1.287179	1.310623
00:00:00.050	1.326740	1.318681	1.306227
00:00:00.050	1.350183	1.307692	1.315751
00:00:00.053	1.274725	1.293773	1.319414
00:00:00.053	1.252015	1.334066	1.314286
00:00:00.053	1.270330	1.329670	1.296703
00:00:00.053	1.276190	1.321612	1.302564
00:00:00.053	1.300366	1.303297	1.306227
00:00:00.053	1.285714	1.272527	1.290110
00:00:00.053	1.305495	1.316484	1.289377
00:00:00.053	1.316484	1.297436	1.295238
00:00:00.053	1.320147	1.279121	1.288645
00:00:00.054	1.329670	1.285714	1.289377
00:00:00.054	1.319414	1.286447	1.296703
00:00:00.054	1.316484	1.295238	1.308425
00:00:00.056	1.320879	1.299634	1.320147
00:00:00.056	1.316484	1.288645	1.318681
00:00:00.056	1.315751	1.313553	1.316484
00:00:00.056	1.295971	1.319414	1.308425
00:00:00.056	1.310623	1.331136	1.316484
00:00:00.057	1.268864	1.350916	1.320879
00:00:00.057	1.263736	1.324542	1.310623
00:00:00.057	1.316484	1.273993	1.304029
00:00:00.058	1.375824	1.266667	1.310623
00:00:00.058	1.360440	1.223443	1.291575
00:00:00.058	1.332601	1.232967	1.286447
00:00:00.059	1.334066	1.297436	1.292308
00:00:00.059	1.332601	1.330403	1.299634
00:00:00.059	1.304029	1.359707	1.295238
00:00:00.060	1.314286	1.420513	1.303297
00:00:00.060	1.263004	1.426374	1.302564
00:00:00.061	1.248352	1.365568	1.293040
00:00:00.061	1.273993	1.303297	1.315751
00:00:00.061	1.288645	1.306960	1.312088
00:00:00.062	1.271062	1.268864	1.321612
00:00:00.062	1.296703	1.252747	1.313553
00:00:00.062	1.298901	1.199267	1.296703
00:00:00.063	1.325275	1.192674	1.303297
00:00:00.063	1.317216	1.245421	1.298901
00:00:00.063	1.336264	1.284982	1.292308
00:00:00.064	1.350916	1.328205	1.302564
00:00:00.064	1.334066	1.339927	1.304762
00:00:00.064	1.339194	1.353846	1.303297
00:00:00.066	1.312821	1.336264	1.300366
00:00:00.066	1.304029	1.347985	1.293040
00:00:00.066	1.328205	1.337729	1.306227
00:00:00.066	1.309890	1.324542	1.307692
00:00:00.066	1.312088	1.368498	1.315018
00:00:00.067	1.317216	1.385348	1.317216
00:00:00.067	1.282784	1.345788	1.320879
00:00:00.067	1.276923	1.272527	1.322344
00:00:00.100	1.272527	1.244689	1.311355
00:00:00.100	1.243956	1.254212	1.295238
00:00:00.100	1.326007	1.254212	1.315751
00:00:00.101	1.379487	1.213919	1.308425
00:00:00.101	1.394139	1.183150	1.287179
00:00:00.101	1.366300	1.266667	1.282784
00:00:00.102	1.319414	1.338462	1.288645
00:00:00.102	1.269597	1.362637	1.295238
00:00:00.102	1.244689	1.383883	1.307692
00:00:00.103	1.263004	1.401465	1.299634
00:00:00.103	1.286447	1.410989	1.300366
00:00:00.103	1.297436	1.384615	1.302564
00:00:00.104	1.314286	1.331868	1.299634
00:00:00.104	1.361905	1.294505	1.312821
00:00:00.105	1.369231	1.246886	1.306960
00:00:00.105	1.352381	1.220513	1.315751
00:00:00.105	1.318681	1.190476	1.317949
00:00:00.106	1.265934	1.231502	1.317216
00:00:00.106	1.309890	1.289377	1.315751
00:00:00.106	1.326740	1.292308	1.292308
00:00:00.107	1.331868	1.351648	1.298168
00:00:00.107	1.255678	1.352381	1.293040
00:00:00.107	1.265201	1.339194	1.300366
00:00:00.108	1.290842	1.326740	1.297436
00:00:00.108	1.336264	1.333333	1.292308
00:00:00.108	1.367766	1.315018	1.275458
00:00:00.109	1.354579	1.310623	1.301832
00:00:00.109	1.320147	1.332601	1.309890
00:00:00.110	1.284982	1.378022	1.310623
00:00:00.110	1.244689	1.318681	1.298901
00:00:00.110	1.318681	1.281319	1.316484
00:00:00.111	1.347253	1.194872	1.307692
00:00:00.111	1.334066	1.186081	1.303297
00:00:00.111	1.318681	1.234432	1.302564
00:00:00.112	1.319414	1.271795	1.296703
00:00:00.112	1.301832	1.305495	1.312088
00:00:00.112	1.265201	1.319414	1.300366
00:00:00.113	1.249817	1.353114	1.298901
00:00:00.113	1.232967	1.351648	1.299634
00:00:00.113	1.241026	1.347985	1.297436
00:00:00.114	1.309158	1.334066	1.305495
00:00:00.114	1.312821	1.320147	1.290842
00:00:00.118	1.348718	1.334066	1.293040
00:00:00.118	1.427106	1.299634	1.292308
00:00:00.118	1.379487	1.278388	1.285714
00:00:00.118	1.317216	1.307692	1.306227
00:00:00.118	1.315751	1.320147	1.307692
00:00:00.118	1.293773	1.322344	1.295971
00:00:00.118	1.278388	1.309158	1.300366
00:00:00.118	1.276923	1.301832	1.318681
00:00:00.150	1.287179	1.314286	1.356044
00:00:00.150	1.293773	1.303297	1.330403
00:00:00.150	1.288645	1.298168	1.317216
00:00:00.150	1.284982	1.312088	1.331136
00:00:00.153	1.317949	1.290842	1.301832
00:00:00.153	1.328205	1.230037	1.282051
00:00:00.153	1.339927	1.252015	1.297436
00:00:00.153	1.324542	1.275458	1.289377
00:00:00.153	1.293773	1.304762	1.282051
00:00:00.153	1.309158	1.350916	1.293040
00:00:00.153	1.292308	1.367033	1.288645
00:00:00.153	1.298901	1.378755	1.294505
00:00:00.154	1.311355	1.424908	1.304029
00:00:00.154	1.304762	1.361172	1.309158
00:00:00.154	1.299634	1.300366	1.319414
00:00:00.155	1.312821	1.253480	1.315018
00:00:00.155	1.338462	1.227106	1.311355
00:00:00.155	1.356044	1.209524	1.318681
00:00:00.156	1.303297	1.248352	1.297436
00:00:00.156	1.206593	1.328205	1.295238
00:00:00.156	1.219048	1.351648	1.304029
00:00:00.157	1.304762	1.389011	1.312821
00:00:00.157	1.398535	1.298901	1.315018
00:00:00.157	1.412454	1.246154	1.306960
00:00:00.158	1.376557	1.235897	1.298168
00:00:00.158	1.315751	1.238828	1.296703
00:00:00.159	1.273993	1.293773	1.297436
00:00:00.159	1.314286	1.359707	1.295971
00:00:00.159	1.328205	1.426374	1.293773
00:00:00.160	1.313553	1.397802	1.298168
00:00:00.160	1.269597	1.326740	1.307692
00:00:00.160	1.273260	1.284249	1.308425
00:00:00.161	1.293773	1.276190	1.312088
00:00:00.161	1.320879	1.221978	1.302564
00:00:00.161	1.346520	1.197802	1.311355
00:00:00.162	1.370696	1.198535	1.316484
00:00:00.162	1.337729	1.237363	1.307692
00:00:00.162	1.290842	1.257875	1.295238
00:00:00.163	1.271795	1.310623	1.299634
00:00:00.163	1.265934	1.347985	1.290110
00:00:00.164	1.293040	1.380952	1.304029
00:00:00.164	1.319414	1.383150	1.311355
00:00:00.164	1.311355	1.351648	1.299634
00:00:00.165	1.312088	1.314286	1.297436
00:00:00.165	1.309890	1.298168	1.295238
00:00:00.165	1.304029	1.277656	1.295971
00:00:00.166	1.288645	1.264469	1.300366
00:00:00.166	1.287912	1.284982	1.321612
00:00:00.166	1.284249	1.328205	1.298168
00:00:00.167	1.295971	1.353846	1.304762
00:00:00.199	1.317949	1.346520	1.311355
00:00:00.199	1.320879	1.341392	1.323077
00:00:00.200	1.328205	1.328938	1.337729
00:00:00.200	1.346520	1.331868	1.335531
00:00:00.200	1.324542	1.322344	1.303297
00:00:00.202	1.320879	1.314286	1.298168
00:00:00.202	1.295238	1.305495	1.281319
00:00:00.202	1.306227	1.299634	1.263004
00:00:00.202	1.314286	1.310623	1.264469
00:00:00.202	1.312088	1.284982	1.269597
00:00:00.203	1.339194	1.293040	1.293040
00:00:00.203	1.354579	1.305495	1.306227
00:00:00.203	1.361172	1.298901	1.295238
00:00:00.204	1.372894	1.320879	1.322344
00:00:00.204	1.312088	1.321612	1.322344
00:00:00.204	1.237363	1.325275	1.318681
00:00:00.205	1.238828	1.308425	1.323810
00:00:00.205	1.265934	1.296703	1.311355
00:00:00.205	1.279121	1.263004	1.313553
00:00:00.206	1.260073	1.252747	1.307692
00:00:00.206	1.290842	1.264469	1.309158
00:00:00.206	1.255678	1.279853	1.303297
00:00:00.207	1.255678	1.293773	1.315018
00:00:00.207	1.243223	1.295971	1.301099
00:00:00.208	1.273260	1.317216	1.300366
00:00:00.208	1.291575	1.315751	1.288645
00:00:00.208	1.378022	1.336264	1.290110
00:00:00.210	1.468864	1.331868	1.295971
00:00:00.210	1.427839	1.339194	1.297436
00:00:00.210	1.344322	1.334066	1.304029
00:00:00.210	1.330403	1.340659	1.323810
00:00:00.210	1.309890	1.319414	1.297436
00:00:00.210	1.287912	1.296703	1.300366
00:00:00.211	1.293773	1.281319	1.306960
00:00:00.211	1.296703	1.296703	1.318681
00:00:00.211	1.268864	1.290842	1.340659
00:00:00.213	1.259341	1.323077	1.332601
00:00:00.213	1.280586	1.326007	1.304762
00:00:00.215	1.312821	1.359707	1.306960
00:00:00.215	1.358974	1.351648	1.297436
00:00:00.215	1.388278	1.316484	1.287912
00:00:00.215	1.350916	1.375092	1.287179
00:00:00.215	1.325275	1.378755	1.276923
00:00:00.215	1.273260	1.305495	1.300366
00:00:00.215	1.273993	1.213187	1.297436
00:00:00.215	1.330403	1.151648	1.290842
00:00:00.215	1.341392	1.240293	1.300366
00:00:00.218	1.315751	1.227106	1.308425
00:00:00.218	1.298901	1.159707	1.308425
00:00:00.218	1.303297	1.172161	1.299634
00:00:00.249	1.288645	1.222711	1.298901
00:00:00.249	1.296703	1.327473	1.312821
00:00:00.249	1.294505	1.343590	1.316484
00:00:00.250	1.300366	1.326007	1.309158
00:00:00.250	1.307692	1.345055	1.314286
00:00:00.250	1.298901	1.333333	1.290842
00:00:00.251	1.299634	1.336264	1.299634
00:00:00.251	1.306227	1.336996	1.286447
00:00:00.252	1.281319	1.341392	1.284249
00:00:00.252	1.280586	1.356044	1.296703
00:00:00.252	1.271795	1.362637	1.306960
00:00:00.253	1.277656	1.340659	1.304029
00:00:00.254	1.320879	1.323077	1.300366
00:00:00.254	1.339194	1.305495	1.291575
00:00:00.254	1.356777	1.304762	1.306960
00:00:00.254	1.441026	1.309158	1.312088
00:00:00.254	1.317216	1.300366	1.317949
00:00:00.255	1.257875	1.308425	1.329670
00:00:00.255	1.248352	1.320147	1.319414
00:00:00.255	1.280586	1.310623	1.305495
00:00:00.256	1.401465	1.309890	1.305495
00:00:00.256	1.351648	1.287179	1.297436
00:00:00.257	1.332601	1.304762	1.304762
00:00:00.257	1.314286	1.309158	1.292308
00:00:00.257	1.271795	1.298901	1.299634
00:00:00.258	1.240293	1.297436	1.300366
00:00:00.258	1.252747	1.326007	1.309890
00:00:00.258	1.220513	1.314286	1.309890
00:00:00.259	1.304029	1.307692	1.312821
00:00:00.259	1.327473	1.294505	1.311355
00:00:00.259	1.291575	1.312821	1.306227
00:00:00.260	1.364103	1.294505	1.287912
00:00:00.260	1.479121	1.296703	1.304029
00:00:00.260	1.438095	1.303297	1.297436
00:00:00.261	1.238095	1.331136	1.302564
00:00:00.261	1.256410	1.342857	1.326740
00:00:00.262	1.273260	1.325275	1.300366
00:00:00.262	1.273260	1.312821	1.301832
00:00:00.262	1.293040	1.314286	1.318681
00:00:00.263	1.247619	1.293773	1.315751
00:00:00.263	1.256410	1.290110	1.336264
00:00:00.263	1.216850	1.306227	1.323810
00:00:00.264	1.265934	1.308425	1.309158
00:00:00.264	1.268864	1.318681	1.290110
00:00:00.264	1.327473	1.309890	1.282784
00:00:00.265	1.292308	1.295971	1.289377
00:00:00.265	1.384615	1.297436	1.320147
00:00:00.265	1.430769	1.270330	1.332601
00:00:00.266	1.605128	1.252015	1.361172
00:00:00.266	1.490110	1.224176	1.354579
00:00:00.298	1.383150	1.240293	1.267399
00:00:00.299	1.200000	1.304762	1.186813
00:00:00.299	1.227106	1.330403	1.190476
00:00:00.299	1.191209	1.371429	1.239560
00:00:00.300	1.206593	1.390476	1.315018
00:00:00.300	1.273993	1.361172	1.356044
00:00:00.301	1.272527	1.345055	1.372161
00:00:00.301	1.265201	1.326740	1.356044
00:00:00.301	1.313553	1.326740	1.328205
00:00:00.302	1.325275	1.293773	1.293773
00:00:00.302	1.322344	1.271795	1.289377
00:00:00.302	1.355311	1.278388	1.276923
00:00:00.303	1.370696	1.284249	1.281319
00:00:00.303	1.363370	1.315751	1.303297
00:00:00.303	1.276923	1.290842	1.308425
00:00:00.304	1.262271	1.261538	1.312821
00:00:00.304	1.282051	1.306227	1.315018
00:00:00.305	1.304762	1.300366	1.320147
00:00:00.305	1.300366	1.229304	1.312088
00:00:00.306	1.312088	1.204396	1.300366
00:00:00.306	1.355311	1.210256	1.294505
00:00:00.306	1.326740	1.221245	1.293040
00:00:00.306	1.257143	1.282784	1.295238
00:00:00.309	1.287912	1.367033	1.306960
00:00:00.309	1.308425	1.375824	1.294505
00:00:00.309	1.328205	1.400000	1.300366
00:00:00.309	1.335531	1.457143	1.323077
00:00:00.309	1.314286	1.434432	1.323810
00:00:00.309	1.306227	1.299634	1.298168
00:00:00.309	1.359707	1.157509	1.295238
00:00:00.309	1.311355	1.149451	1.286447
00:00:00.309	1.261538	1.198535	1.310623
00:00:00.312	1.350183	1.259341	1.336264
00:00:00.312	1.362637	1.294505	1.323810
00:00:00.312	1.315751	1.335531	1.309890
00:00:00.312	1.303297	1.415385	1.307692
00:00:00.312	1.288645	1.525275	1.318681
00:00:00.312	1.227839	1.572161	1.316484
00:00:00.312	1.234432	1.506227	1.315751
00:00:00.312	1.260073	1.452747	1.305495
00:00:00.313	1.294505	1.349451	1.295971
00:00:00.313	1.323077	1.201465	1.292308
00:00:00.313	1.343590	1.134799	1.287912
00:00:00.314	1.334066	1.123077	1.287912
00:00:00.314	1.351648	1.186081	1.287912
00:00:00.314	1.308425	1.224176	1.294505
00:00:00.315	1.306227	1.326007	1.300366
00:00:00.315	1.308425	1.388278	1.298168
00:00:00.316	1.317949	1.359707	1.295238
00:00:00.316	1.317949	1.305495	1.309158
00:00:00.348	1.317216	1.287912	1.312088
00:00:00.348	1.309158	1.257875	1.317949
00:00:00.349	1.295971	1.239560	1.309890
00:00:00.349	1.306227	1.262271	1.309890
00:00:00.350	1.309890	1.293773	1.317216
00:00:00.350	1.313553	1.309890	1.321612
00:00:00.350	1.328938	1.391209	1.326740
00:00:00.351	1.317949	1.411722	1.291575
00:00:00.351	1.300366	1.357509	1.275458
00:00:00.351	1.297436	1.301099	1.276190
00:00:00.352	1.293773	1.238095	1.282051
00:00:00.352	1.311355	1.233700	1.296703
00:00:00.352	1.328938	1.239560	1.306960
00:00:00.353	1.320879	1.158242	1.306960
00:00:00.353	1.308425	1.087179	1.294505
00:00:00.353	1.305495	1.147985	1.292308
00:00:00.354	1.309890	1.295238	1.306227
00:00:00.354	1.317216	1.392674	1.323077
00:00:00.355	1.314286	1.438828	1.323810
00:00:00.355	1.310623	1.397070	1.317216
00:00:00.355	1.278388	1.364835	1.309158
00:00:00.356	1.289377	1.354579	1.303297
00:00:00.356	1.309158	1.361905	1.306960
00:00:00.356	1.330403	1.394872	1.307692
00:00:00.357	1.321612	1.385348	1.303297
00:00:00.357	1.319414	1.459341	1.295238
00:00:00.358	1.317949	1.430769	1.300366
00:00:00.358	1.312088	1.397070	1.312088
00:00:00.358	1.306227	1.306960	1.301832
00:00:00.358	1.315018	1.248352	1.298168
00:00:00.359	1.312088	1.208059	1.300366
00:00:00.359	1.315751	1.212454	1.300366
00:00:00.360	1.309158	1.176557	1.298168
00:00:00.360	1.295238	1.123077	1.293040
00:00:00.360	1.306960	1.202198	1.304762
00:00:00.361	1.305495	1.261538	1.300366
00:00:00.361	1.291575	1.273993	1.292308
00:00:00.361	1.312088	1.308425	1.317216
00:00:00.362	1.301832	1.333333	1.316484
00:00:00.362	1.297436	1.357509	1.320147
00:00:00.362	1.308425	1.350916	1.309158
00:00:00.363	1.320147	1.328205	1.300366
00:00:00.363	1.327473	1.369231	1.306960
00:00:00.363	1.312088	1.367033	1.306227
00:00:00.364	1.304762	1.326007	1.295238
00:00:00.364	1.312088	1.293773	1.305495
00:00:00.365	1.323810	1.279121	1.315018
00:00:00.365	1.312088	1.287912	1.302564
00:00:00.365	1.309890	1.304029	1.309890
00:00:00.366	1.324542	1.363370	1.323077
00:00:00.398	1.307692	1.341392	1.323810
00:00:00.398	1.312821	1.314286	1.315018
00:00:00.399	1.318681	1.298901	1.315018
00:00:00.399	1.293773	1.296703	1.320147
00:00:00.399	1.306227	1.305495	1.317216
00:00:00.400	1.281319	1.263736	1.306227
00:00:00.400	1.279853	1.229304	1.295238
00:00:00.400	1.313553	1.268132	1.295238
00:00:00.401	1.319414	1.325275	1.297436
00:00:00.401	1.314286	1.356044	1.299634
00:00:00.401	1.326007	1.376557	1.295971
00:00:00.402	1.305495	1.326740	1.275458
00:00:00.402	1.301832	1.321612	1.292308
00:00:00.402	1.304029	1.311355	1.300366
00:00:00.404	1.319414	1.301832	1.294505
00:00:00.404	1.309890	1.226374	1.294505
00:00:00.404	1.296703	1.213919	1.304029
00:00:00.404	1.299634	1.233700	1.302564
00:00:00.404	1.306960	1.275458	1.322344
00:00:00.405	1.297436	1.289377	1.310623
00:00:00.405	1.311355	1.315751	1.314286
00:00:00.405	1.320147	1.335531	1.323810
00:00:00.408	1.317216	1.349451	1.300366
00:00:00.408	1.321612	1.353846	1.312088
00:00:00.408	1.313553	1.342857	1.310623
00:00:00.408	1.309890	1.309890	1.303297
00:00:00.408	1.306227	1.305495	1.303297
00:00:00.408	1.314286	1.311355	1.301832
00:00:00.408	1.317949	1.325275	1.289377
00:00:00.408	1.320879	1.378755	1.290842
00:00:00.409	1.318681	1.375824	1.326007
00:00:00.409	1.306960	1.306227	1.293773
00:00:00.409	1.299634	1.268864	1.286447
00:00:00.410	1.308425	1.276923	1.310623
00:00:00.410	1.307692	1.281319	1.317949
00:00:00.410	1.305495	1.266667	1.312088
00:00:00.411	1.312821	1.255678	1.316484
00:00:00.411	1.295971	1.280586	1.309158
00:00:00.411	1.291575	1.309158	1.308425
00:00:00.412	1.312088	1.318681	1.311355
00:00:00.412	1.310623	1.308425	1.302564
00:00:00.412	1.300366	1.307692	1.291575
00:00:00.413	1.313553	1.323077	1.302564
00:00:00.413	1.316484	1.326007	1.300366
00:00:00.414	1.317216	1.328205	1.290110
00:00:00.414	1.309890	1.302564	1.298901
00:00:00.414	1.311355	1.298901	1.302564
00:00:00.415	1.315751	1.410256	1.316484
00:00:00.415	1.319414	1.435897	1.317949
00:00:00.415	1.310623	1.423443	1.308425
00:00:00.448	1.303297	1.418315	1.318681
00:00:00.448	1.310623	1.339194	1.327473
00:00:00.448	1.302564	1.243223	1.315751
00:00:00.449	1.317949	1.213919	1.308425
00:00:00.449	1.297436	1.106227	1.287179
00:00:00.449	1.294505	1.099634	1.292308
00:00:00.450	1.313553	1.169231	1.298168
00:00:00.450	1.307692	1.200733	1.290110
00:00:00.450	1.309890	1.260806	1.292308
00:00:00.451	1.313553	1.334799	1.288645
00:00:00.451	1.317949	1.379487	1.293773
00:00:00.451	1.310623	1.394139	1.293773
00:00:00.452	1.309158	1.384615	1.295238
00:00:00.452	1.309158	1.333333	1.300366
00:00:00.453	1.317216	1.303297	1.315751
00:00:00.453	1.309158	1.293040	1.314286
00:00:00.453	1.316484	1.295238	1.313553
00:00:00.454	1.296703	1.268864	1.298168
00:00:00.454	1.311355	1.282051	1.315751
00:00:00.454	1.304029	1.314286	1.304029
00:00:00.455	1.311355	1.345788	1.316484
00:00:00.455	1.314286	1.339194	1.313553
00:00:00.455	1.313553	1.369231	1.318681
00:00:00.456	1.310623	1.336996	1.306960
00:00:00.456	1.312088	1.333333	1.306960
00:00:00.456	1.315018	1.324542	1.299634
00:00:00.457	1.309158	1.298901	1.300366
00:00:00.457	1.318681	1.287179	1.303297
00:00:00.458	1.317949	1.272527	1.300366
00:00:00.458	1.315751	1.246886	1.290842
00:00:00.458	1.291575	1.236630	1.283516
00:00:00.459	1.303297	1.276190	1.290842
00:00:00.459	1.296703	1.315751	1.307692
00:00:00.459	1.321612	1.356044	1.312821
00:00:00.460	1.320879	1.345788	1.318681
00:00:00.460	1.306960	1.298168	1.307692
00:00:00.460	1.314286	1.294505	1.316484
00:00:00.461	1.308425	1.304029	1.316484
00:00:00.461	1.309890	1.324542	1.306227
00:00:00.461	1.312088	1.364835	1.312821
00:00:00.463	1.314286	1.448352	1.313553
00:00:00.463	1.309890	1.374359	1.291575
00:00:00.463	1.306227	1.287912	1.293040
00:00:00.463	1.312088	1.241026	1.300366
00:00:00.463	1.300366	1.220513	1.301832
00:00:00.464	1.296703	1.200000	1.297436
00:00:00.464	1.313553	1.265934	1.300366
00:00:00.464	1.323077	1.333333	1.291575
00:00:00.465	1.312821	1.334066	1.293040
00:00:00.465	1.301832	1.286447	1.306227
