timestamp	ch1	ch2	ch3
00:00:00.000	1.315751	1.330403	1.294505
00:00:00.000	1.323810	1.347253	1.309158
00:00:00.000	1.320879	1.361905	1.298168
00:00:00.002	1.320147	1.339194	1.295238
00:00:00.002	1.311355	1.318681	1.295971
00:00:00.002	1.277656	1.342125	1.309158
00:00:00.002	1.292308	1.321612	1.317949
00:00:00.002	1.314286	1.300366	1.323810
00:00:00.002	1.346520	1.278388	1.314286
00:00:00.005	1.376557	1.276190	1.317216
00:00:00.005	1.367766	1.265201	1.310623
00:00:00.005	1.328205	1.284982	1.311355
00:00:00.005	1.295971	1.298901	1.308425
00:00:00.005	1.273260	1.298168	1.302564
00:00:00.005	1.302564	1.322344	1.306227
00:00:00.005	1.314286	1.323810	1.299634
00:00:00.005	1.294505	1.334066	1.301832
00:00:00.006	1.281319	1.336996	1.306227
00:00:00.006	1.273260	1.311355	1.293773
00:00:00.007	1.290842	1.313553	1.301832
00:00:00.007	1.298168	1.301099	1.304762
00:00:00.007	1.285714	1.301099	1.298168
00:00:00.007	1.290110	1.303297	1.302564
00:00:00.008	1.306227	1.302564	1.308425
00:00:00.008	1.311355	1.305495	1.318681
00:00:00.040	1.328938	1.304029	1.318681
00:00:00.041	1.288645	1.283516	1.300366
00:00:00.041	1.242491	1.314286	1.308425
00:00:00.041	1.290110	1.319414	1.304029
00:00:00.042	1.347253	1.299634	1.299634
00:00:00.042	1.410989	1.295971	1.306960
00:00:00.043	1.415385	1.319414	1.300366
00:00:00.043	1.345788	1.334066	1.295238
00:00:00.043	1.287912	1.338462	1.300366
00:00:00.044	1.263736	1.307692	1.288645
00:00:00.044	1.298168	1.312821	1.298168
00:00:00.044	1.323077	1.314286	1.299634
00:00:00.045	1.319414	1.301832	1.305495
00:00:00.045	1.273260	1.279121	1.306960
00:00:00.045	1.265201	1.273260	1.305495
00:00:00.046	1.273993	1.292308	1.300366
00:00:00.046	1.305495	1.301832	1.304762
00:00:00.046	1.339194	1.290842	1.301832
00:00:00.047	1.342857	1.290110	1.304762
00:00:00.047	1.356044	1.295238	1.307692
00:00:00.048	1.329670	1.313553	1.306227
00:00:00.048	1.283516	1.303297	1.303297
00:00:00.048	1.238828	1.293773	1.309158
00:00:00.049	1.304029	1.317216	1.292308
00:00:00.049	1.330403	1.387546	1.306227
00:00:00.049	1.326007	1.452015	1.295238
00:00:00.050	1.310623	1.473260	1.306227
00:00:00.050	1.305495	1.371429	1.300366
00:00:00.050	1.297436	1.286447	1.300366
00:00:00.051	1.306227	1.222711	1.311355
00:00:00.051	1.313553	1.162637	1.309158
00:00:00.051	1.327473	1.145055	1.301832
00:00:00.052	1.320147	1.177289	1.307692
00:00:00.052	1.307692	1.191941	1.306960
00:00:00.053	1.306227	1.226374	1.310623
00:00:00.053	1.317949	1.292308	1.306960
00:00:00.053	1.336996	1.323810	1.299634
00:00:00.054	1.342857	1.356044	1.315751
00:00:00.054	1.316484	1.346520	1.305495
00:00:00.054	1.304762	1.337729	1.304029
00:00:00.055	1.305495	1.342125	1.298168
00:00:00.055	1.306227	1.339927	1.292308
00:00:00.055	1.305495	1.326740	1.305495
00:00:00.056	1.264469	1.321612	1.292308
00:00:00.056	1.259341	1.276190	1.279121
00:00:00.056	1.300366	1.260073	1.293773
00:00:00.057	1.325275	1.262271	1.302564
00:00:00.057	1.346520	1.268132	1.301832
00:00:00.058	1.358242	1.325275	1.311355
00:00:00.058	1.337729	1.348718	1.306960
00:00:00.090	1.295238	1.330403	1.310623
00:00:00.091	1.271062	1.328938	1.314286
00:00:00.091	1.257875	1.350183	1.315751
00:00:00.091	1.283516	1.364835	1.320147
00:00:00.092	1.332601	1.337729	1.299634
00:00:00.092	1.320147	1.314286	1.310623
00:00:00.092	1.320879	1.281319	1.309158
00:00:00.093	1.317216	1.268864	1.285714
00:00:00.093	1.315018	1.319414	1.300366
00:00:00.093	1.306960	1.324542	1.292308
00:00:00.094	1.302564	1.327473	1.298168
00:00:00.094	1.316484	1.362637	1.300366
00:00:00.094	1.315018	1.340659	1.292308
00:00:00.096	1.315018	1.327473	1.304762
00:00:00.096	1.305495	1.316484	1.306227
00:00:00.096	1.312088	1.316484	1.300366
00:00:00.096	1.327473	1.325275	1.317216
00:00:00.096	1.321612	1.301099	1.308425
00:00:00.097	1.318681	1.260806	1.305495
00:00:00.097	1.326007	1.284249	1.313553
00:00:00.097	1.327473	1.290842	1.300366
00:00:00.098	1.337729	1.308425	1.316484
00:00:00.098	1.317949	1.288645	1.305495
00:00:00.098	1.290842	1.255678	1.295971
00:00:00.099	1.282051	1.304762	1.300366
00:00:00.099	1.276190	1.328205	1.296703
00:00:00.099	1.288645	1.332601	1.303297
00:00:00.100	1.290842	1.306960	1.300366
00:00:00.100	1.295238	1.281319	1.295971
00:00:00.100	1.300366	1.271062	1.303297
00:00:00.101	1.300366	1.271062	1.305495
00:00:00.101	1.319414	1.267399	1.316484
00:00:00.102	1.308425	1.277656	1.314286
00:00:00.102	1.282051	1.284249	1.306960
00:00:00.102	1.296703	1.299634	1.312088
00:00:00.103	1.305495	1.304029	1.304762
00:00:00.103	1.314286	1.303297	1.315751
00:00:00.103	1.355311	1.305495	1.314286
00:00:00.104	1.378755	1.306227	1.296703
00:00:00.104	1.362637	1.332601	1.313553
00:00:00.104	1.311355	1.352381	1.300366
00:00:00.105	1.269597	1.351648	1.297436
00:00:00.105	1.273993	1.344322	1.297436
00:00:00.105	1.299634	1.344322	1.288645
00:00:00.106	1.328205	1.335531	1.299634
00:00:00.106	1.328205	1.340659	1.303297
00:00:00.107	1.317216	1.339194	1.293040
00:00:00.107	1.307692	1.313553	1.300366
00:00:00.107	1.303297	1.278388	1.309158
00:00:00.108	1.293773	1.260073	1.309158
00:00:00.140	1.304762	1.271795	1.320879
00:00:00.140	1.318681	1.271062	1.317949
00:00:00.141	1.317949	1.266667	1.306960
00:00:00.141	1.317949	1.251282	1.306960
00:00:00.141	1.320879	1.255678	1.306227
00:00:00.142	1.307692	1.290842	1.294505
00:00:00.142	1.318681	1.323810	1.304029
00:00:00.142	1.326007	1.315018	1.293773
00:00:00.143	1.306227	1.372894	1.303297
00:00:00.143	1.300366	1.391209	1.298168
00:00:00.143	1.304762	1.353114	1.290110
00:00:00.144	1.317949	1.342125	1.306960
00:00:00.144	1.318681	1.297436	1.300366
00:00:00.144	1.308425	1.269597	1.304762
00:00:00.145	1.316484	1.252747	1.308425
00:00:00.145	1.306227	1.235897	1.312821
00:00:00.146	1.290842	1.250549	1.296703
00:00:00.146	1.301099	1.312088	1.311355
00:00:00.146	1.303297	1.323810	1.315018
00:00:00.147	1.309890	1.313553	1.315018
00:00:00.147	1.309890	1.265934	1.308425
00:00:00.147	1.308425	1.242491	1.305495
00:00:00.148	1.313553	1.273260	1.300366
00:00:00.148	1.313553	1.319414	1.306960
00:00:00.148	1.312088	1.307692	1.288645
00:00:00.149	1.300366	1.315751	1.300366
00:00:00.149	1.243956	1.329670	1.297436
00:00:00.149	1.256410	1.336264	1.298168
00:00:00.150	1.295971	1.342857	1.290842
00:00:00.150	1.338462	1.369231	1.300366
00:00:00.151	1.361905	1.394139	1.307692
00:00:00.151	1.367033	1.393407	1.299634
00:00:00.151	1.339194	1.339927	1.309158
00:00:00.152	1.321612	1.301099	1.317949
00:00:00.152	1.285714	1.245421	1.314286
00:00:00.152	1.258608	1.215385	1.313553
00:00:00.153	1.296703	1.210256	1.315018
00:00:00.153	1.300366	1.216850	1.306227
00:00:00.153	1.306960	1.263736	1.300366
00:00:00.154	1.326740	1.353114	1.309890
00:00:00.154	1.320147	1.358242	1.298901
00:00:00.154	1.305495	1.346520	1.293040
00:00:00.155	1.301832	1.372894	1.290842
00:00:00.155	1.310623	1.333333	1.285714
00:00:00.156	1.318681	1.295238	1.296703
00:00:00.156	1.322344	1.268864	1.300366
00:00:00.156	1.312088	1.232967	1.295238
00:00:00.157	1.328205	1.269597	1.309158
00:00:00.157	1.294505	1.279853	1.295238
00:00:00.157	1.293040	1.250549	1.290842
00:00:00.190	1.297436	1.290110	1.309890
00:00:00.190	1.301832	1.318681	1.313553
00:00:00.190	1.309890	1.339194	1.300366
00:00:00.192	1.336996	1.350916	1.316484
00:00:00.192	1.314286	1.345055	1.315018
00:00:00.192	1.282051	1.326740	1.309890
00:00:00.192	1.295971	1.316484	1.298901
00:00:00.193	1.290842	1.290842	1.305495
00:00:00.193	1.299634	1.297436	1.309158
00:00:00.193	1.300366	1.271795	1.292308
00:00:00.193	1.292308	1.246886	1.284249
00:00:00.193	1.323810	1.276190	1.299634
00:00:00.194	1.317216	1.294505	1.299634
00:00:00.194	1.319414	1.295238	1.295238
00:00:00.197	1.306227	1.318681	1.308425
00:00:00.197	1.301832	1.335531	1.315751
00:00:00.197	1.304762	1.370696	1.309890
00:00:00.197	1.313553	1.387546	1.319414
00:00:00.197	1.268864	1.372894	1.315751
00:00:00.197	1.271795	1.417582	1.315751
00:00:00.197	1.274725	1.377289	1.317216
00:00:00.197	1.301832	1.367766	1.315751
00:00:00.197	1.332601	1.282784	1.310623
00:00:00.198	1.391209	1.225641	1.306960
00:00:00.198	1.411722	1.191941	1.291575
00:00:00.198	1.352381	1.112088	1.276923
00:00:00.199	1.317949	1.135531	1.276190
00:00:00.199	1.262271	1.201465	1.278388
00:00:00.200	1.296703	1.301832	1.291575
00:00:00.200	1.290842	1.341392	1.293773
00:00:00.200	1.268132	1.334799	1.297436
00:00:00.201	1.285714	1.343590	1.306960
00:00:00.201	1.291575	1.336996	1.312821
00:00:00.201	1.323077	1.327473	1.315018
00:00:00.202	1.337729	1.324542	1.314286
00:00:00.202	1.326007	1.317949	1.311355
00:00:00.202	1.293040	1.332601	1.328938
00:00:00.203	1.202930	1.317216	1.318681
00:00:00.203	1.194872	1.304762	1.300366
00:00:00.204	1.290110	1.316484	1.296703
00:00:00.204	1.390476	1.327473	1.300366
00:00:00.204	1.452015	1.339194	1.304762
00:00:00.205	1.444689	1.331868	1.300366
00:00:00.205	1.373626	1.329670	1.295238
00:00:00.205	1.290842	1.336996	1.295238
00:00:00.206	1.250549	1.347253	1.300366
00:00:00.206	1.247619	1.375824	1.304029
00:00:00.206	1.285714	1.345788	1.306227
00:00:00.207	1.308425	1.304762	1.300366
00:00:00.207	1.315751	1.275458	1.304029
00:00:00.239	1.322344	1.257875	1.316484
00:00:00.240	1.309890	1.236630	1.313553
00:00:00.240	1.299634	1.228571	1.320147
00:00:00.240	1.295238	1.249817	1.315018
00:00:00.241	1.294505	1.258608	1.293773
00:00:00.241	1.296703	1.304029	1.300366
00:00:00.241	1.276923	1.384615	1.301099
00:00:00.242	1.286447	1.416117	1.307692
00:00:00.242	1.307692	1.364103	1.304029
00:00:00.242	1.299634	1.282784	1.292308
00:00:00.243	1.313553	1.260806	1.296703
00:00:00.243	1.325275	1.253480	1.288645
00:00:00.244	1.338462	1.249084	1.298901
00:00:00.244	1.362637	1.245421	1.302564
00:00:00.244	1.329670	1.253480	1.298168
00:00:00.245	1.312088	1.306227	1.306960
00:00:00.245	1.313553	1.349451	1.308425
00:00:00.245	1.317949	1.346520	1.304762
00:00:00.246	1.326007	1.325275	1.310623
00:00:00.246	1.318681	1.302564	1.313553
00:00:00.246	1.313553	1.324542	1.315751
00:00:00.248	1.315018	1.327473	1.303297
00:00:00.248	1.291575	1.300366	1.296703
00:00:00.248	1.298901	1.316484	1.307692
00:00:00.248	1.279121	1.307692	1.306960
00:00:00.248	1.271795	1.306227	1.303297
00:00:00.249	1.275458	1.315751	1.293773
00:00:00.249	1.287912	1.300366	1.294505
00:00:00.249	1.331136	1.323077	1.300366
00:00:00.250	1.331868	1.331868	1.296703
00:00:00.250	1.323077	1.330403	1.298168
00:00:00.250	1.323077	1.339927	1.306227
00:00:00.251	1.306960	1.309890	1.300366
00:00:00.251	1.324542	1.268864	1.309890
00:00:00.251	1.309890	1.238828	1.300366
00:00:00.252	1.306960	1.267399	1.315751
00:00:00.252	1.298901	1.265934	1.312821
00:00:00.253	1.271062	1.276923	1.298168
00:00:00.253	1.285714	1.268132	1.317216
00:00:00.253	1.292308	1.270330	1.307692
00:00:00.254	1.296703	1.320879	1.298168
00:00:00.254	1.329670	1.345788	1.297436
00:00:00.254	1.361172	1.330403	1.290110
00:00:00.257	1.373626	1.321612	1.292308
00:00:00.257	1.365568	1.325275	1.295971
00:00:00.257	1.327473	1.335531	1.299634
00:00:00.257	1.267399	1.323810	1.302564
00:00:00.257	1.241026	1.284982	1.298168
00:00:00.257	1.279121	1.272527	1.298901
00:00:00.257	1.316484	1.315018	1.314286
00:00:00.290	1.345055	1.315018	1.315018
00:00:00.290	1.360440	1.304029	1.312088
00:00:00.290	1.350916	1.384615	1.315018
00:00:00.290	1.287912	1.350183	1.304762
00:00:00.290	1.253480	1.308425	1.308425
00:00:00.291	1.230037	1.299634	1.304029
00:00:00.293	1.255678	1.280586	1.298168
00:00:00.293	1.319414	1.249817	1.306227
00:00:00.293	1.335531	1.233700	1.300366
00:00:00.293	1.334066	1.256410	1.297436
00:00:00.293	1.330403	1.275458	1.298168
00:00:00.293	1.312821	1.323077	1.292308
00:00:00.293	1.310623	1.328938	1.306227
00:00:00.294	1.312088	1.330403	1.309158
00:00:00.294	1.314286	1.326740	1.316484
00:00:00.294	1.320879	1.284982	1.306960
00:00:00.295	1.314286	1.295971	1.303297
00:00:00.295	1.287912	1.318681	1.298901
00:00:00.295	1.301832	1.336264	1.314286
00:00:00.296	1.305495	1.341392	1.312821
00:00:00.296	1.306227	1.338462	1.313553
00:00:00.297	1.317216	1.275458	1.306960
00:00:00.297	1.313553	1.226374	1.302564
00:00:00.297	1.309890	1.238095	1.315018
00:00:00.298	1.308425	1.287179	1.307692
00:00:00.298	1.303297	1.320147	1.293773
00:00:00.298	1.312088	1.335531	1.295971
00:00:00.299	1.315018	1.350183	1.293040
00:00:00.300	1.314286	1.345055	1.297436
00:00:00.300	1.309158	1.377289	1.300366
00:00:00.300	1.314286	1.430037	1.307692
00:00:00.300	1.323810	1.419048	1.310623
00:00:00.300	1.331868	1.388278	1.309890
00:00:00.301	1.352381	1.308425	1.314286
00:00:00.301	1.358974	1.257875	1.318681
00:00:00.302	1.329670	1.203663	1.305495
00:00:00.302	1.301832	1.162637	1.309890
00:00:00.302	1.312821	1.153114	1.302564
00:00:00.303	1.285714	1.142125	1.290842
00:00:00.303	1.282784	1.249084	1.305495
00:00:00.303	1.257143	1.306227	1.297436
00:00:00.304	1.257143	1.354579	1.300366
00:00:00.304	1.260806	1.378022	1.297436
00:00:00.304	1.250549	1.364835	1.287912
00:00:00.305	1.287179	1.367033	1.295971
00:00:00.305	1.327473	1.359707	1.294505
00:00:00.305	1.328938	1.336264	1.288645
00:00:00.306	1.364103	1.323077	1.301099
00:00:00.306	1.361172	1.308425	1.306227
00:00:00.307	1.310623	1.263736	1.303297
00:00:00.339	1.303297	1.279121	1.304762
00:00:00.339	1.282051	1.296703	1.312821
00:00:00.339	1.304029	1.292308	1.314286
00:00:00.340	1.328205	1.297436	1.316484
00:00:00.340	1.307692	1.295971	1.312821
00:00:00.340	1.287912	1.317216	1.312821
00:00:00.341	1.354579	1.339194	1.322344
00:00:00.341	1.412454	1.343590	1.315751
00:00:00.342	1.400000	1.315751	1.304762
00:00:00.342	1.353114	1.304029	1.298168
00:00:00.342	1.271795	1.305495	1.295971
00:00:00.343	1.232234	1.315018	1.288645
00:00:00.343	1.240293	1.320147	1.300366
00:00:00.343	1.261538	1.315751	1.310623
00:00:00.344	1.295238	1.304762	1.300366
00:00:00.344	1.306960	1.301099	1.302564
00:00:00.344	1.320147	1.334066	1.306960
00:00:00.345	1.318681	1.384615	1.304029
00:00:00.345	1.314286	1.374359	1.315018
00:00:00.346	1.320147	1.358974	1.316484
00:00:00.346	1.309158	1.302564	1.314286
00:00:00.346	1.288645	1.228571	1.308425
00:00:00.347	1.273993	1.196337	1.299634
00:00:00.347	1.286447	1.175824	1.297436
00:00:00.347	1.326007	1.229304	1.292308
00:00:00.348	1.361172	1.297436	1.295971
00:00:00.348	1.383150	1.347985	1.300366
00:00:00.348	1.372161	1.352381	1.298168
00:00:00.349	1.317949	1.328938	1.298168
00:00:00.349	1.282051	1.296703	1.296703
00:00:00.349	1.257143	1.302564	1.295238
00:00:00.350	1.280586	1.326007	1.308425
00:00:00.350	1.299634	1.312088	1.306227
00:00:00.351	1.297436	1.268864	1.307692
00:00:00.351	1.309890	1.247619	1.310623
00:00:00.352	1.316484	1.265934	1.315751
00:00:00.352	1.304029	1.290110	1.312088
00:00:00.354	1.294505	1.297436	1.311355
00:00:00.354	1.306227	1.317949	1.318681
00:00:00.354	1.315751	1.352381	1.314286
00:00:00.354	1.310623	1.365568	1.306227
00:00:00.354	1.309158	1.341392	1.293040
00:00:00.354	1.326007	1.317949	1.287912
00:00:00.354	1.332601	1.317949	1.298901
00:00:00.354	1.336996	1.308425	1.300366
00:00:00.355	1.336996	1.298168	1.291575
00:00:00.358	1.341392	1.298901	1.285714
00:00:00.358	1.313553	1.314286	1.296703
00:00:00.358	1.266667	1.320879	1.309158
00:00:00.358	1.275458	1.320147	1.318681
00:00:00.390	1.285714	1.337729	1.312821
00:00:00.390	1.282051	1.346520	1.312088
00:00:00.390	1.316484	1.325275	1.308425
00:00:00.390	1.313553	1.305495	1.309158
00:00:00.390	1.307692	1.270330	1.314286
00:00:00.390	1.308425	1.264469	1.309158
00:00:00.391	1.309890	1.283516	1.300366
00:00:00.391	1.327473	1.307692	1.300366
00:00:00.391	1.311355	1.309158	1.303297
00:00:00.392	1.319414	1.345055	1.300366
00:00:00.392	1.312821	1.358974	1.300366
00:00:00.392	1.304762	1.349451	1.293773
00:00:00.393	1.298901	1.328205	1.291575
00:00:00.393	1.324542	1.281319	1.306960
00:00:00.393	1.298168	1.235165	1.293773
00:00:00.394	1.312088	1.250549	1.305495
00:00:00.394	1.304762	1.300366	1.300366
00:00:00.395	1.304762	1.268864	1.299634
00:00:00.395	1.309890	1.257875	1.309890
00:00:00.395	1.290110	1.263736	1.311355
00:00:00.396	1.300366	1.274725	1.308425
00:00:00.396	1.313553	1.277656	1.315751
00:00:00.396	1.300366	1.286447	1.307692
00:00:00.397	1.301099	1.282784	1.305495
00:00:00.397	1.306227	1.289377	1.301832
00:00:00.397	1.302564	1.318681	1.294505
00:00:00.398	1.292308	1.331136	1.293773
00:00:00.398	1.291575	1.342857	1.291575
00:00:00.398	1.278388	1.355311	1.300366
00:00:00.399	1.299634	1.350183	1.300366
00:00:00.399	1.383883	1.336996	1.298901
00:00:00.400	1.378755	1.323810	1.308425
00:00:00.400	1.331136	1.323077	1.315018
00:00:00.400	1.276190	1.323810	1.316484
00:00:00.401	1.326740	1.315751	1.303297
00:00:00.401	1.438095	1.307692	1.313553
00:00:00.401	1.279853	1.297436	1.343590
00:00:00.402	1.221978	1.288645	1.350183
00:00:00.402	1.191941	1.282784	1.350916
00:00:00.402	1.257875	1.276923	1.304762
00:00:00.403	1.346520	1.284982	1.296703
00:00:00.403	1.320879	1.314286	1.284982
00:00:00.404	1.257875	1.345788	1.276923
00:00:00.404	1.266667	1.355311	1.242491
00:00:00.404	1.390476	1.352381	1.242491
00:00:00.405	1.386813	1.332601	1.259341
00:00:00.405	1.515751	1.336996	1.283516
00:00:00.405	1.293773	1.294505	1.306227
00:00:00.406	1.228571	1.268864	1.284982
00:00:00.406	1.213187	1.277656	1.287912
00:00:00.438	1.260806	1.260073	1.293773
00:00:00.439	1.358242	1.279121	1.315751
00:00:00.439	1.509158	1.307692	1.333333
00:00:00.439	1.362637	1.292308	1.352381
00:00:00.440	1.262271	1.293773	1.346520
00:00:00.440	1.230769	1.297436	1.339194
00:00:00.440	1.237363	1.303297	1.315751
00:00:00.441	1.269597	1.339927	1.312821
00:00:00.441	1.262271	1.345788	1.315751
00:00:00.441	1.232967	1.326007	1.312821
00:00:00.442	1.279853	1.306227	1.307692
00:00:00.442	1.287179	1.302564	1.287912
00:00:00.442	1.375824	1.292308	1.286447
00:00:00.443	1.337729	1.266667	1.311355
00:00:00.443	1.316484	1.249817	1.295238
00:00:00.444	1.323077	1.265201	1.292308
00:00:00.444	1.399267	1.315751	1.310623
00:00:00.444	1.454945	1.301099	1.323077
00:00:00.445	1.404396	1.293773	1.367033
00:00:00.449	1.338462	1.306227	1.431502
00:00:00.449	1.337729	1.295971	1.391941
00:00:00.449	1.357509	1.293040	1.266667
00:00:00.449	1.224176	1.325275	1.197070
00:00:00.449	1.194139	1.366300	1.212454
00:00:00.449	1.212454	1.345055	1.257143
00:00:00.449	1.302564	1.334066	1.315018
00:00:00.449	1.320147	1.315018	1.271795
00:00:00.449	1.247619	1.306960	1.260073
00:00:00.449	1.246154	1.334066	1.333333
00:00:00.449	1.339927	1.357509	1.349451
00:00:00.449	1.369231	1.332601	1.321612
00:00:00.449	1.325275	1.286447	1.296703
00:00:00.452	1.312821	1.251282	1.299634
00:00:00.452	1.320147	1.255678	1.334066
00:00:00.452	1.315018	1.278388	1.328205
00:00:00.452	1.302564	1.309890	1.284982
00:00:00.452	1.296703	1.347985	1.256410
00:00:00.452	1.290110	1.342857	1.289377
00:00:00.452	1.250549	1.306960	1.289377
00:00:00.452	1.291575	1.282051	1.328205
00:00:00.452	1.276923	1.263004	1.306227
00:00:00.453	1.314286	1.269597	1.266667
00:00:00.453	1.362637	1.290842	1.287912
00:00:00.454	1.333333	1.286447	1.303297
00:00:00.454	1.327473	1.306960	1.300366
00:00:00.454	1.309158	1.302564	1.299634
00:00:00.455	1.265201	1.268132	1.312821
00:00:00.455	1.276923	1.232967	1.311355
00:00:00.455	1.279853	1.242491	1.309158
00:00:00.456	1.311355	1.320879	1.304762
00:00:00.488	1.331868	1.354579	1.297436
00:00:00.488	1.356044	1.365568	1.332601
00:00:00.489	1.344322	1.361172	1.358974
00:00:00.489	1.331868	1.343590	1.333333
00:00:00.489	1.320879	1.334799	1.323810
00:00:00.490	1.325275	1.276923	1.309890
00:00:00.490	1.322344	1.270330	1.299634
00:00:00.490	1.320147	1.262271	1.298168
00:00:00.491	1.306960	1.271062	1.292308
00:00:00.491	1.293040	1.277656	1.289377
00:00:00.491	1.295971	1.299634	1.298168
00:00:00.492	1.273993	1.317949	1.290842
00:00:00.492	1.303297	1.354579	1.292308
00:00:00.493	1.322344	1.367033	1.296703
00:00:00.493	1.323810	1.357509	1.302564
00:00:00.493	1.328938	1.346520	1.306960
00:00:00.494	1.323810	1.332601	1.306960
00:00:00.494	1.315018	1.332601	1.303297
00:00:00.494	1.312821	1.321612	1.309890
00:00:00.495	1.316484	1.315018	1.320879
00:00:00.495	1.305495	1.344322	1.311355
00:00:00.495	1.311355	1.397802	1.313553
00:00:00.496	1.311355	1.414652	1.304029
00:00:00.496	1.305495	1.320879	1.308425
00:00:00.496	1.314286	1.264469	1.305495
00:00:00.497	1.307692	1.222711	1.293040
00:00:00.497	1.312088	1.227106	1.305495
00:00:00.498	1.307692	1.268132	1.306960
00:00:00.498	1.306227	1.320147	1.298901
00:00:00.498	1.290110	1.304762	1.281319
00:00:00.499	1.301099	1.309158	1.287179
00:00:00.499	1.301832	1.297436	1.296703
00:00:00.499	1.316484	1.295971	1.300366
00:00:00.500	1.320147	1.287179	1.300366
00:00:00.500	1.319414	1.264469	1.306227
00:00:00.500	1.314286	1.179487	1.293040
00:00:00.501	1.300366	1.173626	1.300366
00:00:00.501	1.304762	1.240293	1.315751
00:00:00.501	1.311355	1.297436	1.313553
00:00:00.502	1.302564	1.315018	1.311355
00:00:00.502	1.315751	1.308425	1.312088
00:00:00.503	1.312088	1.290842	1.295238
00:00:00.503	1.312088	1.280586	1.299634
00:00:00.503	1.318681	1.311355	1.300366
00:00:00.504	1.309890	1.334799	1.288645
00:00:00.504	1.316484	1.360440	1.304029
00:00:00.504	1.313553	1.349451	1.304762
00:00:00.505	1.303297	1.332601	1.304029
00:00:00.505	1.306960	1.359707	1.306227
00:00:00.505	1.314286	1.385348	1.309158
00:00:00.538	1.312088	1.402198	1.313553
00:00:00.538	1.312088	1.527473	1.342857
00:00:00.538	1.305495	1.502564	1.331868
00:00:00.539	1.310623	1.360440	1.320147
00:00:00.539	1.310623	1.246886	1.323810
00:00:00.539	1.304762	1.167766	1.318681
00:00:00.540	1.310623	1.132601	1.312088
00:00:00.540	1.310623	1.156777	1.300366
00:00:00.540	1.309158	1.192674	1.284249
00:00:00.541	1.304762	1.172161	1.273993
00:00:00.541	1.295238	1.192674	1.271062
00:00:00.542	1.302564	1.204396	1.273993
00:00:00.543	1.306960	1.272527	1.266667
00:00:00.543	1.306227	1.346520	1.291575
00:00:00.543	1.323077	1.383883	1.295238
00:00:00.543	1.304762	1.408059	1.289377
00:00:00.543	1.314286	1.431502	1.312821
00:00:00.546	1.310623	1.367033	1.306960
00:00:00.546	1.312088	1.276190	1.308425
00:00:00.546	1.314286	1.257143	1.315751
00:00:00.546	1.309890	1.243956	1.321612
00:00:00.546	1.310623	1.254945	1.328938
00:00:00.546	1.306227	1.279853	1.317216
00:00:00.546	1.311355	1.326740	1.316484
00:00:00.546	1.310623	1.382418	1.310623
00:00:00.549	1.311355	1.372894	1.305495
00:00:00.549	1.323077	1.341392	1.305495
00:00:00.549	1.313553	1.294505	1.289377
00:00:00.549	1.314286	1.320147	1.298168
00:00:00.549	1.314286	1.338462	1.296703
00:00:00.549	1.298901	1.306960	1.282051
00:00:00.549	1.313553	1.391209	1.302564
00:00:00.549	1.309158	1.454945	1.308425
00:00:00.549	1.317949	1.435897	1.311355
00:00:00.550	1.323077	1.386081	1.317949
00:00:00.550	1.306227	1.235897	1.306227
00:00:00.550	1.308425	1.162637	1.314286
00:00:00.551	1.309158	1.194139	1.309158
00:00:00.551	1.310623	1.229304	1.309158
00:00:00.552	1.303297	1.207326	1.307692
00:00:00.552	1.293773	1.219780	1.300366
00:00:00.552	1.297436	1.263736	1.305495
00:00:00.553	1.306960	1.456410	1.308425
00:00:00.553	1.304762	1.478388	1.298168
00:00:00.553	1.317949	1.327473	1.307692
00:00:00.554	1.316484	1.194139	1.300366
00:00:00.554	1.302564	1.167766	1.287912
00:00:00.554	1.317216	1.252747	1.292308
00:00:00.555	1.312088	1.237363	1.280586
00:00:00.555	1.309890	1.180220	1.280586
00:00:00.587	1.311355	1.224176	1.296703
00:00:00.588	1.302564	1.295238	1.302564
00:00:00.588	1.301099	1.347985	1.314286
00:00:00.588	1.305495	1.358974	1.315018
00:00:00.589	1.310623	1.352381	1.307692
00:00:00.589	1.309158	1.347253	1.313553
00:00:00.589	1.311355	1.353114	1.312821
00:00:00.590	1.304029	1.350183	1.307692
00:00:00.590	1.303297	1.353846	1.304029
00:00:00.591	1.312088	1.342857	1.309158
00:00:00.591	1.319414	1.316484	1.301832
00:00:00.591	1.323810	1.317216	1.302564
00:00:00.592	1.317216	1.328938	1.302564
00:00:00.593	1.308425	1.340659	1.293773
00:00:00.593	1.315751	1.356044	1.296703
00:00:00.593	1.307692	1.356044	1.295971
00:00:00.593	1.306960	1.349451	1.309158
00:00:00.593	1.308425	1.326007	1.304029
00:00:00.594	1.319414	1.305495	1.313553
00:00:00.594	1.315018	1.290842	1.306960
00:00:00.594	1.307692	1.273993	1.303297
00:00:00.595	1.309158	1.269597	1.305495
00:00:00.595	1.304762	1.276923	1.304762
00:00:00.596	1.306960	1.268864	1.292308
00:00:00.596	1.310623	1.321612	1.312821
00:00:00.596	1.309890	1.337729	1.306227
00:00:00.597	1.301099	1.331136	1.295971
00:00:00.597	1.312088	1.312821	1.300366
00:00:00.597	1.296703	1.276190	1.297436
00:00:00.598	1.315018	1.296703	1.303297
00:00:00.598	1.316484	1.309890	1.298901
00:00:00.598	1.300366	1.281319	1.300366
00:00:00.599	1.317949	1.284249	1.302564
00:00:00.599	1.312821	1.284249	1.291575
00:00:00.599	1.316484	1.314286	1.313553
00:00:00.600	1.312088	1.323810	1.303297
00:00:00.600	1.295238	1.306227	1.309158
00:00:00.601	1.304762	1.284982	1.309890
00:00:00.601	1.302564	1.280586	1.294505
00:00:00.601	1.310623	1.312821	1.313553
00:00:00.602	1.308425	1.299634	1.312088
00:00:00.602	1.301099	1.298901	1.312088
00:00:00.602	1.315751	1.302564	1.311355
00:00:00.603	1.304762	1.299634	1.299634
00:00:00.603	1.313553	1.328938	1.295971
00:00:00.603	1.316484	1.318681	1.297436
00:00:00.604	1.312088	1.285714	1.283516
00:00:00.604	1.310623	1.303297	1.298168
00:00:00.604	1.315751	1.297436	1.296703
00:00:00.605	1.304762	1.289377	1.293040
00:00:00.637	1.310623	1.304762	1.306227
00:00:00.637	1.309158	1.302564	1.292308
00:00:00.638	1.315018	1.317216	1.316484
00:00:00.638	1.312821	1.312821	1.312821
00:00:00.638	1.310623	1.299634	1.310623
00:00:00.640	1.309158	1.290842	1.306227
00:00:00.640	1.303297	1.291575	1.306960
00:00:00.640	1.304762	1.304762	1.305495
00:00:00.640	1.310623	1.320879	1.306960
00:00:00.640	1.307692	1.304762	1.295971
00:00:00.642	1.306960	1.316484	1.298901
00:00:00.642	1.315018	1.319414	1.303297
00:00:00.642	1.311355	1.307692	1.288645
00:00:00.642	1.315751	1.315751	1.288645
00:00:00.642	1.310623	1.321612	1.292308
00:00:00.642	1.306227	1.318681	1.300366
00:00:00.646	1.309890	1.312088	1.300366
00:00:00.646	1.316484	1.315751	1.309890
00:00:00.646	1.312088	1.299634	1.315751
00:00:00.646	1.307692	1.274725	1.315751
00:00:00.646	1.312821	1.275458	1.318681
00:00:00.646	1.314286	1.271062	1.321612
00:00:00.646	1.302564	1.269597	1.304762
00:00:00.646	1.312821	1.329670	1.311355
00:00:00.646	1.308425	1.353114	1.304762
00:00:00.646	1.302564	1.355311	1.299634
00:00:00.646	1.313553	1.323077	1.300366
00:00:00.647	1.308425	1.298168	1.288645
00:00:00.647	1.314286	1.295238	1.298168
00:00:00.647	1.308425	1.273993	1.288645
00:00:00.648	1.313553	1.251282	1.295971
00:00:00.648	1.315018	1.268864	1.297436
00:00:00.649	1.312088	1.296703	1.298168
00:00:00.649	1.317949	1.297436	1.313553
00:00:00.649	1.312088	1.312821	1.303297
00:00:00.650	1.309890	1.333333	1.311355
00:00:00.650	1.311355	1.339927	1.312088
00:00:00.650	1.302564	1.350916	1.309890
00:00:00.651	1.312088	1.361905	1.319414
00:00:00.651	1.308425	1.287912	1.312088
00:00:00.651	1.309158	1.255678	1.308425
00:00:00.652	1.306960	1.219780	1.298168
00:00:00.652	1.304029	1.227106	1.296703
00:00:00.652	1.319414	1.295971	1.298168
00:00:00.653	1.314286	1.319414	1.289377
00:00:00.653	1.297436	1.333333	1.281319
00:00:00.654	1.319414	1.348718	1.300366
00:00:00.654	1.311355	1.298901	1.297436
00:00:00.654	1.319414	1.287179	1.303297
00:00:00.655	1.313553	1.312088	1.303297
00:00:00.687	1.315018	1.389011	1.312821
00:00:00.687	1.310623	1.397070	1.306960
00:00:00.687	1.305495	1.355311	1.297436
00:00:00.688	1.310623	1.331868	1.316484
00:00:00.688	1.306227	1.265934	1.295971
00:00:00.689	1.309890	1.243223	1.310623
00:00:00.689	1.314286	1.238828	1.315751
00:00:00.689	1.307692	1.247619	1.310623
00:00:00.690	1.306227	1.249817	1.300366
00:00:00.690	1.304762	1.276923	1.290842
00:00:00.690	1.310623	1.318681	1.300366
00:00:00.691	1.313553	1.326007	1.300366
00:00:00.691	1.308425	1.342125	1.299634
00:00:00.691	1.312088	1.347253	1.301832
00:00:00.692	1.315751	1.337729	1.299634
00:00:00.692	1.304029	1.317949	1.298901
00:00:00.693	1.315018	1.317949	1.304762
00:00:00.693	1.314286	1.328938	1.301832
00:00:00.693	1.312088	1.338462	1.315751
00:00:00.694	1.311355	1.334066	1.309158
00:00:00.694	1.314286	1.360440	1.320147
00:00:00.694	1.314286	1.367766	1.320879
00:00:00.695	1.312088	1.350183	1.323077
00:00:00.695	1.312088	1.357509	1.320879
00:00:00.695	1.312088	1.323810	1.309158
00:00:00.696	1.304762	1.277656	1.301832
00:00:00.697	1.315751	1.229304	1.300366
00:00:00.697	1.312821	1.168498	1.295238
00:00:00.697	1.304029	1.210256	1.290842
00:00:00.697	1.309158	1.284982	1.292308
00:00:00.698	1.312088	1.310623	1.290842
00:00:00.698	1.298901	1.317216	1.287179
00:00:00.698	1.314286	1.385348	1.293773
00:00:00.699	1.309158	1.403663	1.299634
00:00:00.699	1.312088	1.383883	1.300366
00:00:00.699	1.306227	1.339194	1.291575
00:00:00.700	1.312088	1.301099	1.312088
00:00:00.700	1.314286	1.279853	1.317949
00:00:00.700	1.303297	1.275458	1.320879
00:00:00.701	1.291575	1.249084	1.317216
00:00:00.701	1.306227	1.238095	1.316484
00:00:00.701	1.311355	1.263736	1.310623
00:00:00.704	1.294505	1.285714	1.294505
00:00:00.704	1.311355	1.295238	1.300366
00:00:00.704	1.307692	1.300366	1.293040
00:00:00.704	1.299634	1.314286	1.293773
00:00:00.704	1.316484	1.331136	1.294505
00:00:00.704	1.315751	1.306227	1.285714
00:00:00.704	1.314286	1.313553	1.308425
00:00:00.704	1.315751	1.326740	1.302564
00:00:00.737	1.306227	1.317216	1.304762
00:00:00.737	1.315018	1.350183	1.320147
00:00:00.737	1.304762	1.330403	1.302564
00:00:00.738	1.301099	1.322344	1.310623
00:00:00.738	1.305495	1.304762	1.320879
00:00:00.738	1.311355	1.278388	1.321612
00:00:00.742	1.304029	1.266667	1.312821
00:00:00.742	1.298168	1.279121	1.305495
00:00:00.742	1.306960	1.276190	1.293773
00:00:00.742	1.303297	1.274725	1.293040
00:00:00.742	1.314286	1.265201	1.284982
00:00:00.742	1.307692	1.268132	1.276923
00:00:00.742	1.306960	1.293773	1.288645
00:00:00.742	1.307692	1.312821	1.284249
00:00:00.742	1.319414	1.334066	1.294505
00:00:00.742	1.309158	1.311355	1.280586
00:00:00.742	1.313553	1.296703	1.298168
00:00:00.743	1.309890	1.282051	1.304762
00:00:00.743	1.313553	1.273993	1.318681
00:00:00.743	1.311355	1.281319	1.307692
00:00:00.744	1.312088	1.304762	1.318681
00:00:00.744	1.307692	1.326007	1.317216
00:00:00.744	1.308425	1.345788	1.320147
00:00:00.745	1.300366	1.347253	1.314286
00:00:00.745	1.308425	1.349451	1.311355
