timestamp	ch1	ch2	ch3
00:00:00.000	1.301832	1.332601	1.293040
00:00:00.000	1.318681	1.347253	1.298901
00:00:00.000	1.309158	1.325275	1.288645
00:00:00.000	1.315018	1.314286	1.298168
00:00:00.000	1.314286	1.306227	1.304029
00:00:00.000	1.309158	1.294505	1.311355
00:00:00.000	1.312821	1.288645	1.315751
00:00:00.000	1.309158	1.282051	1.312088
00:00:00.000	1.304762	1.280586	1.305495
00:00:00.001	1.305495	1.293040	1.314286
00:00:00.001	1.304029	1.292308	1.309158
00:00:00.002	1.301832	1.301099	1.309158
00:00:00.002	1.301832	1.304762	1.293773
00:00:00.002	1.315018	1.320879	1.304029
00:00:00.003	1.311355	1.317949	1.295238
00:00:00.003	1.310623	1.327473	1.298168
00:00:00.003	1.312088	1.325275	1.296703
00:00:00.004	1.310623	1.317949	1.294505
00:00:00.004	1.300366	1.299634	1.295238
00:00:00.004	1.314286	1.299634	1.297436
00:00:00.004	1.311355	1.301832	1.300366
00:00:00.005	1.312088	1.299634	1.306227
00:00:00.005	1.300366	1.289377	1.305495
00:00:00.005	1.302564	1.276923	1.292308
00:00:00.006	1.309890	1.290842	1.302564
00:00:00.038	1.309890	1.294505	1.311355
00:00:00.038	1.312821	1.297436	1.314286
00:00:00.039	1.298168	1.293773	1.303297
00:00:00.039	1.309158	1.304029	1.305495
00:00:00.039	1.309890	1.312088	1.304029
00:00:00.040	1.326740	1.331136	1.310623
00:00:00.040	1.305495	1.320147	1.296703
00:00:00.040	1.304029	1.315751	1.297436
00:00:00.041	1.312088	1.312821	1.298168
00:00:00.041	1.312088	1.304762	1.284249
00:00:00.041	1.317949	1.315751	1.297436
00:00:00.042	1.307692	1.309158	1.295238
00:00:00.042	1.295238	1.312821	1.304029
00:00:00.043	1.295971	1.310623	1.303297
00:00:00.043	1.304029	1.306227	1.315751
00:00:00.043	1.306960	1.289377	1.316484
00:00:00.044	1.309890	1.302564	1.315018
00:00:00.044	1.300366	1.297436	1.315018
00:00:00.044	1.320147	1.297436	1.314286
00:00:00.045	1.308425	1.290110	1.306227
00:00:00.045	1.302564	1.284982	1.298168
00:00:00.046	1.313553	1.298168	1.309158
00:00:00.046	1.315018	1.310623	1.301832
00:00:00.046	1.311355	1.323810	1.300366
00:00:00.047	1.315751	1.326740	1.295971
00:00:00.047	1.316484	1.306960	1.290110
00:00:00.048	1.320879	1.315018	1.302564
00:00:00.048	1.312821	1.306227	1.294505
00:00:00.048	1.309158	1.311355	1.298901
00:00:00.048	1.309890	1.314286	1.297436
00:00:00.049	1.308425	1.300366	1.308425
00:00:00.049	1.307692	1.297436	1.314286
00:00:00.049	1.302564	1.298168	1.309890
00:00:00.050	1.304762	1.287179	1.305495
00:00:00.050	1.314286	1.290110	1.320147
00:00:00.050	1.304029	1.289377	1.306227
00:00:00.051	1.314286	1.286447	1.312821
00:00:00.052	1.309158	1.295238	1.303297
00:00:00.052	1.302564	1.307692	1.300366
00:00:00.052	1.308425	1.316484	1.298168
00:00:00.052	1.309890	1.323077	1.297436
00:00:00.053	1.315018	1.326007	1.294505
00:00:00.053	1.310623	1.328938	1.295238
00:00:00.054	1.310623	1.320147	1.298168
00:00:00.054	1.322344	1.309890	1.295971
00:00:00.054	1.312088	1.310623	1.297436
00:00:00.055	1.301099	1.334799	1.304762
00:00:00.055	1.309890	1.345055	1.306960
00:00:00.056	1.312088	1.314286	1.312821
00:00:00.056	1.307692	1.284982	1.313553
00:00:00.088	1.308425	1.279853	1.312821
00:00:00.088	1.301832	1.273260	1.311355
00:00:00.089	1.296703	1.270330	1.305495
00:00:00.089	1.313553	1.281319	1.318681
00:00:00.091	1.303297	1.246154	1.299634
00:00:00.091	1.303297	1.255678	1.303297
00:00:00.091	1.311355	1.305495	1.296703
00:00:00.091	1.306960	1.325275	1.287912
00:00:00.091	1.317216	1.345788	1.296703
00:00:00.091	1.310623	1.337729	1.296703
00:00:00.093	1.312821	1.337729	1.300366
00:00:00.093	1.312088	1.319414	1.300366
00:00:00.093	1.310623	1.304029	1.305495
00:00:00.093	1.299634	1.293773	1.305495
00:00:00.093	1.300366	1.274725	1.308425
00:00:00.093	1.290842	1.254945	1.296703
00:00:00.094	1.308425	1.280586	1.317949
00:00:00.094	1.297436	1.284982	1.305495
00:00:00.096	1.309890	1.310623	1.311355
00:00:00.096	1.315751	1.334799	1.309890
00:00:00.096	1.297436	1.314286	1.304029
00:00:00.096	1.312088	1.313553	1.309890
00:00:00.096	1.305495	1.310623	1.298901
00:00:00.096	1.306960	1.312088	1.296703
00:00:00.098	1.322344	1.326740	1.300366
00:00:00.098	1.317216	1.320147	1.304029
00:00:00.098	1.324542	1.316484	1.303297
00:00:00.098	1.317216	1.312088	1.293040
00:00:00.098	1.312821	1.308425	1.300366
00:00:00.099	1.316484	1.298168	1.304762
00:00:00.099	1.316484	1.282051	1.302564
00:00:00.099	1.317216	1.311355	1.318681
00:00:00.099	1.311355	1.320879	1.309890
00:00:00.100	1.293040	1.311355	1.309158
00:00:00.100	1.295238	1.294505	1.312088
00:00:00.100	1.298168	1.297436	1.305495
00:00:00.101	1.290110	1.301099	1.308425
00:00:00.101	1.300366	1.276923	1.306227
00:00:00.102	1.295238	1.276190	1.300366
00:00:00.102	1.299634	1.301099	1.300366
00:00:00.102	1.309158	1.301099	1.292308
00:00:00.102	1.305495	1.296703	1.295971
00:00:00.103	1.312821	1.306960	1.296703
00:00:00.103	1.321612	1.306960	1.295238
00:00:00.104	1.320147	1.288645	1.291575
00:00:00.104	1.327473	1.300366	1.309158
00:00:00.104	1.314286	1.300366	1.308425
00:00:00.105	1.311355	1.306227	1.307692
00:00:00.105	1.298901	1.309158	1.306960
00:00:00.105	1.314286	1.324542	1.312088
00:00:00.137	1.314286	1.313553	1.313553
00:00:00.138	1.304029	1.308425	1.312821
00:00:00.138	1.298168	1.305495	1.314286
00:00:00.139	1.311355	1.295238	1.300366
00:00:00.139	1.308425	1.301099	1.310623
00:00:00.139	1.304029	1.315018	1.305495
00:00:00.140	1.301099	1.321612	1.296703
00:00:00.140	1.312088	1.326740	1.294505
00:00:00.140	1.320147	1.330403	1.309890
00:00:00.141	1.309158	1.318681	1.302564
00:00:00.141	1.317216	1.310623	1.300366
00:00:00.142	1.316484	1.297436	1.285714
00:00:00.142	1.309890	1.302564	1.304029
00:00:00.142	1.300366	1.289377	1.299634
00:00:00.143	1.298168	1.282051	1.298901
00:00:00.143	1.306227	1.288645	1.309890
00:00:00.143	1.298901	1.282784	1.298901
00:00:00.144	1.298901	1.276923	1.309890
00:00:00.144	1.282051	1.290110	1.310623
00:00:00.144	1.246886	1.312821	1.302564
00:00:00.145	1.285714	1.326007	1.312088
00:00:00.145	1.320147	1.304029	1.309158
00:00:00.146	1.336996	1.293040	1.311355
00:00:00.146	1.361905	1.286447	1.304029
00:00:00.146	1.370696	1.291575	1.299634
00:00:00.147	1.359707	1.298168	1.290110
00:00:00.147	1.329670	1.305495	1.293040
00:00:00.147	1.317216	1.308425	1.293773
00:00:00.148	1.297436	1.312821	1.298901
00:00:00.148	1.257875	1.309158	1.293040
00:00:00.148	1.288645	1.319414	1.302564
00:00:00.150	1.308425	1.312821	1.307692
00:00:00.150	1.285714	1.298168	1.309890
00:00:00.150	1.296703	1.305495	1.315018
00:00:00.150	1.296703	1.298168	1.305495
00:00:00.150	1.292308	1.334066	1.320879
00:00:00.151	1.299634	1.332601	1.312088
00:00:00.151	1.290842	1.315751	1.298168
00:00:00.152	1.298901	1.306227	1.297436
00:00:00.152	1.301832	1.286447	1.287912
00:00:00.152	1.322344	1.301099	1.295971
00:00:00.152	1.326740	1.304029	1.296703
00:00:00.153	1.332601	1.308425	1.303297
00:00:00.153	1.328205	1.301832	1.303297
00:00:00.154	1.314286	1.273993	1.296703
00:00:00.154	1.312088	1.288645	1.311355
00:00:00.154	1.317949	1.313553	1.310623
00:00:00.156	1.309158	1.298168	1.287179
00:00:00.156	1.327473	1.316484	1.310623
00:00:00.156	1.313553	1.318681	1.304762
00:00:00.187	1.311355	1.339927	1.315751
00:00:00.187	1.309158	1.338462	1.315751
00:00:00.188	1.319414	1.304762	1.314286
00:00:00.191	1.305495	1.263736	1.312088
00:00:00.191	1.304029	1.266667	1.314286
00:00:00.191	1.295238	1.279121	1.317949
00:00:00.191	1.302564	1.300366	1.316484
00:00:00.191	1.302564	1.302564	1.312821
00:00:00.191	1.315751	1.298168	1.306960
00:00:00.191	1.306227	1.302564	1.300366
00:00:00.191	1.290842	1.305495	1.289377
00:00:00.191	1.305495	1.300366	1.287912
00:00:00.191	1.311355	1.309890	1.285714
00:00:00.192	1.316484	1.334066	1.297436
00:00:00.192	1.318681	1.337729	1.306227
00:00:00.193	1.309890	1.308425	1.296703
00:00:00.193	1.320879	1.304762	1.317949
00:00:00.193	1.323810	1.302564	1.318681
00:00:00.194	1.317949	1.294505	1.312821
00:00:00.194	1.317216	1.292308	1.320879
00:00:00.195	1.302564	1.296703	1.300366
00:00:00.195	1.304762	1.332601	1.315751
00:00:00.195	1.301832	1.312821	1.300366
00:00:00.196	1.295238	1.292308	1.282784
00:00:00.196	1.297436	1.298168	1.282784
00:00:00.196	1.306227	1.295971	1.285714
00:00:00.197	1.314286	1.296703	1.291575
00:00:00.197	1.314286	1.305495	1.296703
00:00:00.197	1.295971	1.293040	1.288645
00:00:00.198	1.303297	1.299634	1.303297
00:00:00.198	1.301832	1.299634	1.300366
00:00:00.198	1.300366	1.298901	1.304762
00:00:00.199	1.299634	1.298168	1.300366
00:00:00.199	1.282784	1.304762	1.312821
00:00:00.199	1.267399	1.296703	1.312821
00:00:00.200	1.295971	1.312088	1.314286
00:00:00.200	1.253480	1.298901	1.302564
00:00:00.200	1.279853	1.323810	1.310623
00:00:00.202	1.368498	1.356044	1.300366
00:00:00.202	1.393407	1.335531	1.302564
00:00:00.202	1.431502	1.312088	1.294505
00:00:00.202	1.409524	1.291575	1.291575
00:00:00.202	1.331136	1.268864	1.282051
00:00:00.203	1.288645	1.279853	1.298901
00:00:00.203	1.304029	1.276923	1.295971
00:00:00.204	1.326740	1.282051	1.300366
00:00:00.204	1.246886	1.301099	1.296703
00:00:00.204	1.244689	1.303297	1.300366
00:00:00.204	1.303297	1.389011	1.315751
00:00:00.205	1.347985	1.402198	1.342857
00:00:00.236	1.361172	1.345055	1.310623
00:00:00.237	1.315018	1.339194	1.317949
00:00:00.238	1.282051	1.331868	1.320147
00:00:00.238	1.263736	1.294505	1.309890
00:00:00.239	1.217582	1.250549	1.298901
00:00:00.239	1.245421	1.247619	1.293773
00:00:00.239	1.241758	1.249817	1.271062
00:00:00.239	1.245421	1.228571	1.260073
00:00:00.240	1.278388	1.205861	1.280586
00:00:00.240	1.339927	1.257143	1.354579
00:00:00.240	1.347985	1.246154	1.328938
00:00:00.241	1.321612	1.268132	1.341392
00:00:00.241	1.320147	1.280586	1.317949
00:00:00.242	1.364103	1.301832	1.289377
00:00:00.242	1.335531	1.304029	1.271795
00:00:00.242	1.287179	1.295971	1.285714
00:00:00.243	1.290842	1.328938	1.295238
00:00:00.244	1.315751	1.356044	1.300366
00:00:00.244	1.303297	1.334066	1.295238
00:00:00.244	1.323810	1.318681	1.303297
00:00:00.245	1.349451	1.314286	1.328938
00:00:00.245	1.313553	1.283516	1.317216
00:00:00.245	1.315751	1.302564	1.282784
00:00:00.246	1.319414	1.322344	1.218315
00:00:00.246	1.290842	1.316484	1.210256
00:00:00.246	1.281319	1.309158	1.257875
00:00:00.246	1.296703	1.320147	1.351648
00:00:00.247	1.282784	1.344322	1.375092
00:00:00.247	1.302564	1.348718	1.337729
00:00:00.248	1.303297	1.346520	1.309158
00:00:00.248	1.289377	1.424908	1.291575
00:00:00.248	1.372161	1.468132	1.314286
00:00:00.249	1.401465	1.348718	1.286447
00:00:00.249	1.380952	1.271795	1.285714
00:00:00.250	1.363370	1.227839	1.331136
00:00:00.250	1.354579	1.215385	1.347253
00:00:00.250	1.317949	1.257875	1.345055
00:00:00.251	1.237363	1.254945	1.323810
00:00:00.251	1.194139	1.212454	1.322344
00:00:00.251	1.163370	1.198535	1.328205
00:00:00.253	1.179487	1.238095	1.320879
00:00:00.253	1.236630	1.309890	1.286447
00:00:00.253	1.301832	1.326007	1.256410
00:00:00.253	1.326007	1.312088	1.268132
00:00:00.256	1.344322	1.288645	1.266667
00:00:00.256	1.377289	1.273260	1.263004
00:00:00.256	1.391209	1.326007	1.284982
00:00:00.256	1.356044	1.316484	1.276923
00:00:00.256	1.336264	1.344322	1.309890
00:00:00.256	1.308425	1.428571	1.336996
00:00:00.288	1.322344	1.460806	1.341392
00:00:00.288	1.300366	1.387546	1.337729
00:00:00.288	1.293773	1.250549	1.313553
00:00:00.288	1.424908	1.192674	1.284982
00:00:00.289	1.445421	1.350916	1.282784
00:00:00.289	1.394139	1.462271	1.292308
00:00:00.289	1.290110	1.405128	1.313553
00:00:00.289	1.241026	1.202930	1.295971
00:00:00.290	1.209524	1.171429	1.282051
00:00:00.290	1.227106	1.191209	1.297436
00:00:00.290	1.260073	1.227106	1.297436
00:00:00.291	1.228571	1.233700	1.323810
00:00:00.291	1.228571	1.172161	1.312821
00:00:00.291	1.238828	1.084982	1.260806
00:00:00.292	1.332601	1.211722	1.265934
00:00:00.293	1.356044	1.358974	1.265201
00:00:00.293	1.338462	1.404396	1.284982
00:00:00.293	1.249084	1.379487	1.289377
00:00:00.293	1.263736	1.350916	1.331136
00:00:00.293	1.331868	1.326007	1.365568
00:00:00.294	1.400000	1.302564	1.372161
00:00:00.294	1.465934	1.317216	1.351648
00:00:00.294	1.441026	1.318681	1.312821
00:00:00.295	1.375092	1.317949	1.289377
00:00:00.295	1.282784	1.330403	1.282784
00:00:00.296	1.219048	1.346520	1.276923
00:00:00.296	1.213919	1.346520	1.269597
00:00:00.296	1.194139	1.341392	1.268132
00:00:00.297	1.268132	1.368498	1.276923
00:00:00.297	1.320147	1.377289	1.302564
00:00:00.297	1.301099	1.355311	1.311355
00:00:00.298	1.282784	1.385348	1.300366
00:00:00.298	1.301832	1.344322	1.300366
00:00:00.299	1.329670	1.265934	1.295971
00:00:00.299	1.359707	1.253480	1.328205
00:00:00.299	1.334066	1.249817	1.334066
00:00:00.299	1.314286	1.306960	1.334066
00:00:00.300	1.332601	1.362637	1.317949
00:00:00.300	1.308425	1.255678	1.297436
00:00:00.301	1.304029	1.134066	1.292308
00:00:00.301	1.300366	1.213187	1.295238
00:00:00.302	1.271795	1.318681	1.287912
00:00:00.302	1.276923	1.283516	1.282051
00:00:00.302	1.297436	1.241026	1.276190
00:00:00.302	1.328205	1.292308	1.279853
00:00:00.303	1.350183	1.336996	1.296703
00:00:00.303	1.370696	1.316484	1.300366
00:00:00.304	1.373626	1.310623	1.299634
00:00:00.304	1.350916	1.265934	1.287912
00:00:00.304	1.299634	1.282784	1.309890
00:00:00.336	1.247619	1.309158	1.303297
00:00:00.337	1.265201	1.329670	1.313553
00:00:00.338	1.276923	1.317949	1.315751
00:00:00.338	1.298168	1.337729	1.307692
00:00:00.338	1.312821	1.330403	1.306960
00:00:00.338	1.317216	1.301832	1.295971
00:00:00.338	1.329670	1.326007	1.304762
00:00:00.339	1.336264	1.352381	1.295238
00:00:00.339	1.335531	1.351648	1.300366
00:00:00.340	1.320147	1.339927	1.300366
00:00:00.340	1.307692	1.296703	1.293773
00:00:00.340	1.312821	1.298901	1.294505
00:00:00.341	1.344322	1.366300	1.293040
00:00:00.341	1.322344	1.364103	1.303297
00:00:00.342	1.328205	1.307692	1.302564
00:00:00.342	1.312088	1.241758	1.311355
00:00:00.342	1.252747	1.214652	1.310623
00:00:00.343	1.224176	1.230769	1.300366
00:00:00.343	1.257143	1.313553	1.316484
00:00:00.344	1.302564	1.329670	1.316484
00:00:00.344	1.369231	1.426374	1.313553
00:00:00.344	1.382418	1.435897	1.308425
00:00:00.344	1.309890	1.405128	1.297436
00:00:00.345	1.215385	1.356044	1.298901
00:00:00.346	1.198535	1.328938	1.298901
00:00:00.346	1.293040	1.337729	1.309890
00:00:00.346	1.413187	1.242491	1.298168
00:00:00.349	1.418315	1.092308	1.288645
00:00:00.349	1.372161	1.054212	1.288645
00:00:00.349	1.300366	1.117949	1.279121
00:00:00.349	1.186813	1.210256	1.289377
00:00:00.349	1.192674	1.219048	1.275458
00:00:00.349	1.253480	1.195604	1.271062
00:00:00.349	1.284982	1.257143	1.283516
00:00:00.349	1.318681	1.381685	1.309890
00:00:00.349	1.332601	1.410256	1.338462
00:00:00.349	1.316484	1.388278	1.340659
00:00:00.350	1.317216	1.361172	1.318681
00:00:00.353	1.378755	1.330403	1.243956
00:00:00.353	1.404396	1.407326	1.242491
00:00:00.353	1.350916	1.472527	1.329670
00:00:00.353	1.284982	1.446154	1.347253
00:00:00.353	1.253480	1.416850	1.427106
00:00:00.353	1.260073	1.329670	1.389011
00:00:00.353	1.295238	1.256410	1.332601
00:00:00.353	1.337729	1.252747	1.308425
00:00:00.353	1.315018	1.258608	1.304029
00:00:00.353	1.376557	1.232967	1.287912
00:00:00.354	1.396337	1.185348	1.295971
00:00:00.354	1.408791	1.172161	1.313553
00:00:00.387	1.320147	1.204396	1.279121
00:00:00.387	1.212454	1.345055	1.273993
00:00:00.387	1.208059	1.402930	1.278388
00:00:00.388	1.237363	1.395604	1.303297
00:00:00.388	1.292308	1.341392	1.314286
00:00:00.388	1.297436	1.284982	1.305495
00:00:00.388	1.304762	1.252747	1.310623
00:00:00.389	1.320147	1.238828	1.304762
00:00:00.389	1.331868	1.278388	1.300366
00:00:00.389	1.348718	1.336996	1.300366
00:00:00.390	1.339194	1.361172	1.288645
00:00:00.390	1.320147	1.373626	1.297436
00:00:00.391	1.326740	1.358974	1.295971
00:00:00.391	1.328938	1.346520	1.292308
00:00:00.391	1.317216	1.343590	1.296703
00:00:00.391	1.311355	1.306960	1.290110
00:00:00.392	1.312088	1.331136	1.306960
00:00:00.392	1.349451	1.342857	1.309158
00:00:00.392	1.360440	1.339194	1.319414
00:00:00.393	1.319414	1.334066	1.314286
00:00:00.393	1.272527	1.361905	1.290110
00:00:00.394	1.251282	1.332601	1.300366
00:00:00.395	1.230037	1.224908	1.304029
00:00:00.395	1.254212	1.235165	1.301832
00:00:00.395	1.307692	1.269597	1.290110
00:00:00.395	1.333333	1.236630	1.288645
00:00:00.396	1.333333	1.224908	1.289377
00:00:00.396	1.326007	1.309158	1.304762
00:00:00.396	1.366300	1.389744	1.290842
00:00:00.397	1.357509	1.323077	1.295238
00:00:00.397	1.282051	1.247619	1.297436
00:00:00.397	1.228571	1.157509	1.292308
00:00:00.397	1.290110	1.181685	1.316484
00:00:00.398	1.357509	1.213919	1.322344
00:00:00.399	1.410989	1.260073	1.328205
00:00:00.399	1.383150	1.316484	1.317216
00:00:00.399	1.280586	1.318681	1.297436
00:00:00.400	1.208059	1.342125	1.300366
00:00:00.400	1.200733	1.359707	1.316484
00:00:00.400	1.208059	1.369231	1.315751
00:00:00.401	1.276923	1.375824	1.310623
00:00:00.401	1.316484	1.364835	1.311355
00:00:00.401	1.324542	1.358974	1.295238
00:00:00.402	1.326007	1.405128	1.296703
00:00:00.402	1.337729	1.361905	1.290842
00:00:00.402	1.344322	1.313553	1.289377
00:00:00.402	1.367033	1.305495	1.306960
00:00:00.403	1.362637	1.304029	1.295238
00:00:00.403	1.347253	1.288645	1.303297
00:00:00.404	1.334066	1.276923	1.304762
00:00:00.436	1.307692	1.276190	1.306960
00:00:00.436	1.257875	1.297436	1.317949
00:00:00.437	1.267399	1.318681	1.316484
00:00:00.437	1.261538	1.296703	1.313553
00:00:00.437	1.284249	1.290842	1.323077
00:00:00.438	1.298901	1.284982	1.306227
00:00:00.438	1.352381	1.309890	1.314286
00:00:00.439	1.381685	1.328938	1.307692
00:00:00.439	1.334799	1.311355	1.296703
00:00:00.439	1.324542	1.315751	1.300366
00:00:00.440	1.313553	1.328205	1.292308
00:00:00.440	1.317216	1.380952	1.298901
00:00:00.440	1.313553	1.327473	1.292308
00:00:00.442	1.265934	1.292308	1.290842
00:00:00.442	1.271062	1.293040	1.298168
00:00:00.444	1.305495	1.328205	1.305495
00:00:00.444	1.346520	1.305495	1.318681
00:00:00.444	1.347985	1.250549	1.312088
00:00:00.444	1.351648	1.172161	1.305495
00:00:00.444	1.363370	1.198535	1.304762
00:00:00.444	1.356044	1.284249	1.297436
00:00:00.444	1.264469	1.299634	1.295971
00:00:00.444	1.249817	1.254212	1.290842
00:00:00.444	1.206593	1.232234	1.282784
00:00:00.445	1.197070	1.300366	1.279853
