timestamp	ch1	ch2	ch3
00:00:00.000	1.317216	1.295971	1.308425
00:00:00.000	1.328205	1.291575	1.304029
00:00:00.001	1.322344	1.280586	1.304029
00:00:00.001	1.315018	1.272527	1.304762
00:00:00.002	1.309158	1.298168	1.298901
00:00:00.002	1.309158	1.386081	1.309158
00:00:00.002	1.306227	1.378755	1.298901
00:00:00.003	1.306227	1.282784	1.301832
00:00:00.004	1.315018	1.186813	1.314286
00:00:00.004	1.312088	1.172161	1.311355
00:00:00.004	1.306227	1.214652	1.306227
00:00:00.004	1.308425	1.301099	1.305495
00:00:00.005	1.310623	1.361172	1.294505
00:00:00.005	1.315018	1.391209	1.306227
00:00:00.005	1.309890	1.366300	1.295238
00:00:00.005	1.322344	1.349451	1.299634
00:00:00.007	1.314286	1.327473	1.298168
00:00:00.007	1.312088	1.332601	1.302564
00:00:00.008	1.309890	1.319414	1.305495
00:00:00.008	1.304029	1.305495	1.299634
00:00:00.008	1.304762	1.301099	1.302564
00:00:00.008	1.319414	1.317216	1.314286
00:00:00.008	1.311355	1.298901	1.303297
00:00:00.008	1.318681	1.297436	1.315751
00:00:00.011	1.299634	1.303297	1.317216
00:00:00.011	1.292308	1.312821	1.304762
00:00:00.011	1.317949	1.355311	1.304029
00:00:00.011	1.315751	1.353114	1.307692
00:00:00.011	1.320879	1.361905	1.306960
00:00:00.011	1.339194	1.387546	1.300366
00:00:00.011	1.341392	1.417582	1.293040
00:00:00.011	1.353846	1.402930	1.300366
00:00:00.012	1.350916	1.334066	1.284982
00:00:00.012	1.316484	1.205128	1.279121
00:00:00.012	1.291575	1.139927	1.293040
00:00:00.013	1.252015	1.147253	1.306227
00:00:00.013	1.225641	1.145788	1.300366
00:00:00.013	1.240293	1.211722	1.298901
00:00:00.014	1.246154	1.273260	1.296703
00:00:00.014	1.290842	1.330403	1.317949
00:00:00.014	1.300366	1.350916	1.326740
00:00:00.015	1.288645	1.293773	1.300366
00:00:00.015	1.319414	1.336996	1.320147
00:00:00.015	1.328938	1.289377	1.307692
00:00:00.016	1.323077	1.255678	1.300366
00:00:00.016	1.331136	1.298168	1.317949
00:00:00.017	1.310623	1.317216	1.302564
00:00:00.017	1.319414	1.330403	1.302564
00:00:00.017	1.313553	1.309890	1.292308
00:00:00.018	1.317949	1.257875	1.281319
00:00:00.050	1.320879	1.332601	1.291575
00:00:00.050	1.323810	1.356044	1.306227
00:00:00.051	1.326007	1.350183	1.306960
00:00:00.051	1.322344	1.328205	1.307692
00:00:00.051	1.321612	1.323077	1.322344
00:00:00.052	1.317949	1.314286	1.318681
00:00:00.052	1.329670	1.314286	1.330403
00:00:00.052	1.322344	1.332601	1.314286
00:00:00.053	1.310623	1.336996	1.309158
00:00:00.053	1.317949	1.334066	1.304762
00:00:00.053	1.312821	1.320879	1.276190
00:00:00.054	1.312821	1.375824	1.295971
00:00:00.054	1.318681	1.372161	1.295971
00:00:00.054	1.301832	1.384615	1.272527
00:00:00.055	1.309158	1.383150	1.300366
00:00:00.055	1.299634	1.462271	1.322344
00:00:00.056	1.312088	1.594139	1.348718
00:00:00.056	1.319414	1.536996	1.364835
00:00:00.056	1.323077	1.435165	1.343590
00:00:00.057	1.321612	1.314286	1.330403
00:00:00.057	1.327473	1.104029	1.307692
00:00:00.057	1.320879	0.948718	1.282051
00:00:00.058	1.322344	0.827839	1.272527
00:00:00.058	1.292308	0.956044	1.233700
00:00:00.058	1.297436	1.158242	1.243223
00:00:00.059	1.263736	1.345788	1.264469
00:00:00.059	1.280586	1.342125	1.274725
00:00:00.059	1.309890	1.292308	1.317949
00:00:00.060	1.310623	1.210256	1.328205
00:00:00.060	1.309890	1.172894	1.332601
00:00:00.061	1.309158	1.225641	1.309158
00:00:00.061	1.298168	1.298168	1.309158
00:00:00.061	1.304762	1.416850	1.326007
00:00:00.062	1.320147	1.446886	1.326740
00:00:00.062	1.320147	1.509890	1.329670
00:00:00.062	1.312088	1.513553	1.318681
00:00:00.063	1.326007	1.433700	1.319414
00:00:00.063	1.311355	1.355311	1.316484
00:00:00.063	1.311355	1.329670	1.306227
00:00:00.064	1.314286	1.354579	1.299634
00:00:00.064	1.308425	1.358242	1.292308
00:00:00.064	1.305495	1.329670	1.315018
00:00:00.065	1.295971	1.339194	1.303297
00:00:00.065	1.301832	1.259341	1.299634
00:00:00.066	1.334066	1.226374	1.289377
00:00:00.066	1.342125	1.348718	1.278388
00:00:00.066	1.328205	1.330403	1.284982
00:00:00.067	1.306227	1.280586	1.288645
00:00:00.067	1.311355	1.253480	1.312821
00:00:00.067	1.312088	1.227839	1.318681
00:00:00.100	1.328938	1.167766	1.319414
00:00:00.100	1.304029	1.060806	1.293040
00:00:00.100	1.300366	1.161905	1.312821
00:00:00.102	1.298901	1.280586	1.321612
00:00:00.102	1.300366	1.402930	1.322344
00:00:00.102	1.282051	1.484982	1.298901
00:00:00.102	1.276923	1.476190	1.282051
00:00:00.102	1.297436	1.459341	1.303297
00:00:00.102	1.294505	1.298901	1.306227
00:00:00.104	1.294505	1.214652	1.299634
00:00:00.104	1.312088	1.241026	1.315018
00:00:00.104	1.314286	1.202930	1.320879
00:00:00.104	1.313553	1.234432	1.313553
00:00:00.104	1.307692	1.267399	1.300366
00:00:00.107	1.304762	1.341392	1.309158
00:00:00.107	1.303297	1.343590	1.305495
00:00:00.107	1.305495	1.394872	1.299634
00:00:00.107	1.323810	1.666667	1.313553
00:00:00.107	1.327473	1.597802	1.308425
00:00:00.107	1.338462	1.430037	1.273260
00:00:00.107	1.335531	1.293773	1.268132
00:00:00.107	1.347253	1.147253	1.285714
00:00:00.107	1.350916	1.106227	1.306227
00:00:00.108	1.344322	1.144322	1.323810
00:00:00.108	1.326007	1.284249	1.339927
00:00:00.108	1.307692	1.154579	1.345055
00:00:00.110	1.287179	1.132601	1.339194
00:00:00.110	1.292308	1.210256	1.315751
00:00:00.110	1.273260	1.237363	1.290110
00:00:00.110	1.286447	1.302564	1.296703
00:00:00.110	1.300366	1.416850	1.290110
00:00:00.111	1.303297	1.372894	1.299634
00:00:00.111	1.325275	1.355311	1.316484
00:00:00.111	1.323077	1.336996	1.287179
00:00:00.112	1.315751	1.298168	1.285714
00:00:00.112	1.307692	1.330403	1.282784
00:00:00.112	1.325275	1.444689	1.302564
00:00:00.113	1.318681	1.442491	1.312088
00:00:00.113	1.312088	1.382418	1.306227
00:00:00.114	1.316484	1.329670	1.300366
00:00:00.114	1.298168	1.257143	1.280586
00:00:00.114	1.287179	1.218315	1.290842
00:00:00.115	1.292308	1.315751	1.306227
00:00:00.115	1.308425	1.331868	1.312821
00:00:00.115	1.317216	1.227106	1.300366
00:00:00.116	1.284249	1.208059	1.306227
00:00:00.116	1.272527	1.225641	1.328205
00:00:00.116	1.296703	1.238095	1.342857
00:00:00.117	1.317216	1.307692	1.338462
00:00:00.117	1.328938	1.372894	1.342857
00:00:00.149	1.320147	1.400000	1.337729
00:00:00.150	1.307692	1.411722	1.331868
00:00:00.150	1.332601	1.456410	1.315018
00:00:00.150	1.349451	1.430769	1.304029
00:00:00.151	1.336996	1.450549	1.302564
00:00:00.151	1.309158	1.434432	1.295971
00:00:00.151	1.305495	1.290110	1.290110
00:00:00.152	1.288645	1.200000	1.286447
00:00:00.152	1.304762	1.136264	1.287179
00:00:00.152	1.317949	1.150183	1.287912
00:00:00.153	1.326007	1.133333	1.265201
00:00:00.153	1.336996	1.217582	1.271062
00:00:00.154	1.319414	1.246886	1.270330
00:00:00.154	1.319414	1.359707	1.290842
00:00:00.154	1.328938	1.466667	1.309158
00:00:00.155	1.329670	1.386081	1.326007
00:00:00.155	1.300366	1.326007	1.332601
00:00:00.155	1.283516	1.359707	1.323810
00:00:00.156	1.289377	1.351648	1.322344
00:00:00.156	1.298901	1.345788	1.323810
00:00:00.156	1.320147	1.332601	1.312088
00:00:00.157	1.309158	1.221978	1.318681
00:00:00.157	1.298168	1.109158	1.315018
00:00:00.158	1.272527	1.089377	1.300366
00:00:00.158	1.294505	1.218315	1.288645
00:00:00.158	1.314286	1.180952	1.292308
00:00:00.159	1.307692	1.293040	1.296703
00:00:00.159	1.317216	1.504029	1.301832
00:00:00.159	1.319414	1.561172	1.295238
00:00:00.160	1.320879	1.489377	1.300366
00:00:00.160	1.323810	1.350183	1.304762
00:00:00.160	1.326740	1.136996	1.299634
00:00:00.161	1.329670	1.057143	1.311355
00:00:00.162	1.323810	1.172161	1.303297
00:00:00.162	1.312821	1.322344	1.307692
00:00:00.162	1.308425	1.403663	1.297436
00:00:00.162	1.312088	1.424908	1.299634
00:00:00.163	1.315751	1.487179	1.302564
00:00:00.163	1.317949	1.494505	1.300366
00:00:00.163	1.315751	1.553846	1.317216
00:00:00.164	1.325275	1.516484	1.315751
00:00:00.164	1.307692	1.323077	1.284982
00:00:00.164	1.310623	1.147985	1.293773
00:00:00.166	1.298901	0.951648	1.274725
00:00:00.166	1.287912	1.013187	1.274725
00:00:00.166	1.295971	1.093040	1.273260
00:00:00.166	1.287912	1.246154	1.268864
00:00:00.166	1.304029	1.334799	1.300366
00:00:00.166	1.300366	1.317216	1.314286
00:00:00.168	1.277656	1.245421	1.329670
00:00:00.199	1.289377	1.310623	1.352381
00:00:00.199	1.286447	1.364103	1.346520
00:00:00.202	1.305495	1.400000	1.334066
00:00:00.202	1.326007	1.437363	1.339194
00:00:00.202	1.324542	1.458608	1.332601
00:00:00.202	1.316484	1.391941	1.305495
00:00:00.202	1.306227	1.329670	1.293773
00:00:00.202	1.309890	1.313553	1.304029
00:00:00.202	1.310623	1.280586	1.311355
00:00:00.202	1.317949	1.267399	1.296703
00:00:00.203	1.334066	1.315018	1.283516
00:00:00.203	1.328938	1.374359	1.258608
00:00:00.203	1.350916	1.435165	1.283516
00:00:00.204	1.333333	1.395604	1.288645
00:00:00.204	1.321612	1.331136	1.293773
00:00:00.204	1.321612	1.290842	1.274725
00:00:00.205	1.329670	1.321612	1.285714
00:00:00.205	1.323810	1.456410	1.323810
00:00:00.205	1.326007	1.517949	1.361905
00:00:00.206	1.317216	1.413187	1.349451
00:00:00.206	1.306227	1.202930	1.344322
00:00:00.207	1.281319	1.002930	1.326007
00:00:00.207	1.265201	0.928938	1.291575
00:00:00.207	1.257875	1.016850	1.282051
00:00:00.208	1.253480	1.128938	1.293773
00:00:00.208	1.260806	1.347253	1.309890
00:00:00.208	1.293773	1.416117	1.313553
00:00:00.209	1.315018	1.393407	1.306960
00:00:00.209	1.330403	1.308425	1.319414
00:00:00.209	1.332601	1.211722	1.306227
00:00:00.210	1.338462	1.180952	1.304762
00:00:00.210	1.333333	1.278388	1.298901
00:00:00.210	1.327473	1.369963	1.295971
00:00:00.211	1.320879	1.438828	1.285714
00:00:00.211	1.305495	1.423443	1.273260
00:00:00.212	1.304029	1.404396	1.274725
00:00:00.212	1.287912	1.355311	1.282051
00:00:00.212	1.312088	1.389011	1.294505
00:00:00.213	1.315751	1.482784	1.309890
00:00:00.213	1.338462	1.504762	1.327473
00:00:00.214	1.342125	1.485714	1.316484
00:00:00.214	1.334799	1.287912	1.315751
00:00:00.214	1.313553	1.085714	1.300366
00:00:00.214	1.322344	1.044689	1.310623
00:00:00.215	1.317216	1.046154	1.299634
00:00:00.215	1.311355	1.183883	1.295971
00:00:00.215	1.304029	1.300366	1.312088
00:00:00.216	1.306960	1.334066	1.300366
00:00:00.216	1.307692	1.366300	1.307692
00:00:00.217	1.306227	1.417582	1.303297
00:00:00.249	1.303297	1.398535	1.305495
00:00:00.249	1.295971	1.354579	1.312088
00:00:00.249	1.283516	1.353846	1.300366
00:00:00.250	1.287179	1.356777	1.316484
00:00:00.250	1.304029	1.381685	1.312821
00:00:00.251	1.334799	1.481319	1.301832
00:00:00.251	1.321612	1.520147	1.314286
00:00:00.251	1.323810	1.380220	1.289377
00:00:00.252	1.320879	1.214652	1.287179
00:00:00.252	1.315018	1.169231	1.305495
00:00:00.252	1.314286	1.076190	1.293040
00:00:00.253	1.321612	1.134799	1.309890
00:00:00.253	1.315751	1.430769	1.313553
00:00:00.253	1.300366	1.513553	1.331868
00:00:00.254	1.287179	1.381685	1.300366
00:00:00.254	1.290842	1.281319	1.298901
00:00:00.254	1.287179	1.319414	1.293040
00:00:00.255	1.304762	1.159707	1.296703
00:00:00.255	1.271795	0.983150	1.276923
00:00:00.256	1.303297	0.976557	1.282051
00:00:00.256	1.302564	1.071795	1.269597
00:00:00.256	1.293773	1.134799	1.275458
00:00:00.257	1.305495	1.336264	1.282784
00:00:00.257	1.304029	1.490842	1.304029
00:00:00.257	1.311355	1.492308	1.317216
00:00:00.258	1.336264	1.449084	1.326007
00:00:00.258	1.334066	1.380952	1.332601
00:00:00.258	1.333333	1.356044	1.318681
00:00:00.259	1.322344	1.334799	1.318681
00:00:00.259	1.321612	1.384615	1.314286
00:00:00.259	1.319414	1.471062	1.305495
00:00:00.261	1.339194	1.473993	1.305495
00:00:00.261	1.333333	1.373626	1.273993
00:00:00.261	1.320879	1.334066	1.253480
00:00:00.261	1.325275	1.252747	1.243956
00:00:00.261	1.326740	1.298168	1.257875
00:00:00.264	1.312821	1.403663	1.265201
00:00:00.264	1.312088	1.441026	1.284249
00:00:00.264	1.315751	1.373626	1.320879
00:00:00.264	1.307692	1.332601	1.360440
00:00:00.264	1.311355	1.281319	1.392674
00:00:00.264	1.279853	1.131868	1.387546
00:00:00.264	1.258608	0.958974	1.369231
00:00:00.264	1.249817	0.887179	1.339927
00:00:00.264	1.256410	1.094505	1.328938
00:00:00.267	1.265201	1.338462	1.320147
00:00:00.267	1.285714	1.408059	1.314286
00:00:00.267	1.314286	1.374359	1.303297
00:00:00.267	1.335531	1.264469	1.294505
00:00:00.267	1.326007	1.279121	1.291575
