timestamp	ch1	ch2	ch3
00:00:00.000	1.281319	1.312088	1.311355
00:00:00.000	1.309890	1.312821	1.323077
00:00:00.000	1.320147	1.294505	1.312821
00:00:00.000	1.290110	1.253480	1.310623
00:00:00.000	1.282051	1.193407	1.302564
00:00:00.000	1.299634	1.145788	1.293040
00:00:00.000	1.328205	1.140659	1.287179
00:00:00.033	1.314286	1.193407	1.281319
00:00:00.033	1.279853	1.234432	1.288645
00:00:00.033	1.276190	1.285714	1.284982
00:00:00.033	1.298168	1.358974	1.299634
00:00:00.033	1.320147	1.396337	1.311355
00:00:00.034	1.316484	1.407326	1.300366
00:00:00.034	1.300366	1.416117	1.299634
00:00:00.034	1.316484	1.366300	1.303297
00:00:00.038	1.321612	1.309890	1.305495
00:00:00.038	1.336264	1.291575	1.312088
00:00:00.038	1.325275	1.292308	1.322344
00:00:00.038	1.315018	1.306960	1.312088
00:00:00.038	1.307692	1.343590	1.317216
00:00:00.038	1.287912	1.357509	1.312088
00:00:00.038	1.294505	1.327473	1.311355
00:00:00.038	1.315751	1.317949	1.314286
00:00:00.038	1.309890	1.333333	1.311355
00:00:00.038	1.309158	1.297436	1.317216
00:00:00.038	1.312821	1.238095	1.314286
00:00:00.039	1.312088	1.197070	1.295971
00:00:00.039	1.310623	1.230769	1.283516
00:00:00.039	1.325275	1.289377	1.288645
00:00:00.040	1.316484	1.310623	1.295238
00:00:00.040	1.301832	1.322344	1.287179
00:00:00.040	1.306227	1.342125	1.287912
00:00:00.041	1.311355	1.338462	1.299634
00:00:00.041	1.300366	1.338462	1.303297
00:00:00.041	1.297436	1.329670	1.303297
00:00:00.042	1.303297	1.311355	1.308425
00:00:00.042	1.315018	1.293040	1.312821
00:00:00.042	1.317949	1.283516	1.320147
00:00:00.043	1.329670	1.286447	1.323077
00:00:00.043	1.313553	1.282784	1.326007
00:00:00.044	1.308425	1.310623	1.311355
00:00:00.045	1.295971	1.320879	1.288645
00:00:00.045	1.300366	1.325275	1.290842
00:00:00.045	1.305495	1.322344	1.290110
00:00:00.045	1.290110	1.320879	1.286447
00:00:00.045	1.326007	1.334799	1.286447
00:00:00.046	1.317949	1.383883	1.296703
00:00:00.046	1.304762	1.367033	1.295971
00:00:00.046	1.280586	1.270330	1.287912
00:00:00.047	1.295971	1.203663	1.306960
00:00:00.047	1.289377	1.209524	1.300366
00:00:00.047	1.288645	1.259341	1.312821
00:00:00.048	1.291575	1.282051	1.312821
00:00:00.048	1.297436	1.290842	1.306227
00:00:00.049	1.323077	1.337729	1.310623
00:00:00.049	1.328938	1.361172	1.309890
00:00:00.049	1.328938	1.347985	1.306227
00:00:00.081	1.315018	1.334799	1.309890
00:00:00.082	1.323077	1.326007	1.300366
00:00:00.082	1.364103	1.306227	1.304029
00:00:00.083	1.346520	1.270330	1.292308
00:00:00.083	1.317216	1.256410	1.293773
00:00:00.083	1.282784	1.267399	1.290110
00:00:00.084	1.267399	1.283516	1.300366
00:00:00.084	1.286447	1.295971	1.296703
00:00:00.084	1.279853	1.299634	1.300366
00:00:00.085	1.285714	1.320879	1.313553
00:00:00.085	1.250549	1.296703	1.310623
00:00:00.085	1.253480	1.287912	1.310623
00:00:00.086	1.318681	1.327473	1.316484
00:00:00.086	1.363370	1.357509	1.317216
00:00:00.086	1.368498	1.364103	1.308425
00:00:00.087	1.370696	1.360440	1.314286
00:00:00.087	1.343590	1.317216	1.300366
00:00:00.088	1.297436	1.280586	1.298901
00:00:00.088	1.279853	1.278388	1.307692
00:00:00.088	1.275458	1.287912	1.293773
00:00:00.089	1.298168	1.280586	1.293040
00:00:00.089	1.274725	1.273993	1.293040
00:00:00.089	1.297436	1.273993	1.298901
00:00:00.090	1.288645	1.262271	1.293040
00:00:00.090	1.304762	1.300366	1.308425
00:00:00.090	1.309158	1.333333	1.304029
00:00:00.091	1.316484	1.353114	1.302564
00:00:00.091	1.311355	1.343590	1.300366
00:00:00.091	1.307692	1.326740	1.300366
00:00:00.092	1.315018	1.283516	1.304762
00:00:00.092	1.325275	1.273993	1.304762
00:00:00.093	1.323077	1.254945	1.306960
00:00:00.093	1.316484	1.230769	1.298168
00:00:00.093	1.319414	1.233700	1.300366
00:00:00.095	1.309158	1.293040	1.297436
00:00:00.095	1.312821	1.337729	1.299634
00:00:00.095	1.337729	1.367766	1.306960
00:00:00.095	1.333333	1.352381	1.304762
00:00:00.097	1.323077	1.312821	1.298168
00:00:00.097	1.297436	1.289377	1.298168
00:00:00.097	1.289377	1.298901	1.305495
00:00:00.097	1.284982	1.301099	1.293773
00:00:00.097	1.282051	1.297436	1.287179
00:00:00.097	1.300366	1.293040	1.282051
00:00:00.097	1.316484	1.287912	1.285714
00:00:00.098	1.318681	1.314286	1.302564
00:00:00.098	1.315751	1.317949	1.343590
00:00:00.098	1.301099	1.314286	1.345788
00:00:00.102	1.321612	1.300366	1.325275
00:00:00.102	1.315751	1.299634	1.307692
00:00:00.134	1.334066	1.306960	1.299634
00:00:00.134	1.323077	1.350916	1.304762
00:00:00.134	1.304029	1.400000	1.300366
00:00:00.134	1.303297	1.378022	1.300366
00:00:00.134	1.302564	1.342125	1.295971
00:00:00.134	1.285714	1.295971	1.289377
00:00:00.134	1.306227	1.282784	1.304762
00:00:00.134	1.306960	1.254945	1.290842
00:00:00.134	1.310623	1.198535	1.287912
00:00:00.134	1.295971	1.214652	1.298168
00:00:00.135	1.280586	1.230037	1.276923
00:00:00.135	1.301832	1.277656	1.300366
00:00:00.136	1.301832	1.276923	1.307692
00:00:00.136	1.317216	1.286447	1.313553
00:00:00.136	1.328938	1.313553	1.305495
00:00:00.137	1.299634	1.343590	1.306960
00:00:00.137	1.304029	1.339194	1.326740
00:00:00.137	1.320879	1.329670	1.317949
00:00:00.138	1.287179	1.312821	1.300366
00:00:00.138	1.282051	1.312088	1.289377
00:00:00.138	1.306960	1.323810	1.297436
00:00:00.139	1.355311	1.323810	1.300366
00:00:00.139	1.369963	1.328938	1.300366
00:00:00.139	1.356777	1.327473	1.297436
00:00:00.140	1.331136	1.323810	1.292308
00:00:00.140	1.313553	1.319414	1.295238
00:00:00.141	1.269597	1.318681	1.300366
00:00:00.141	1.280586	1.322344	1.300366
00:00:00.141	1.276190	1.306227	1.304029
00:00:00.142	1.295238	1.338462	1.312088
00:00:00.142	1.317949	1.337729	1.315018
00:00:00.142	1.332601	1.295971	1.326007
00:00:00.143	1.309158	1.263736	1.317216
00:00:00.143	1.271795	1.253480	1.307692
00:00:00.143	1.271062	1.290110	1.304029
00:00:00.144	1.289377	1.311355	1.295238
00:00:00.144	1.306227	1.345055	1.300366
00:00:00.144	1.321612	1.359707	1.294505
00:00:00.145	1.315018	1.387546	1.295971
00:00:00.145	1.313553	1.356044	1.298168
00:00:00.146	1.331136	1.298168	1.296703
00:00:00.146	1.330403	1.247619	1.309890
00:00:00.146	1.329670	1.213187	1.297436
00:00:00.147	1.312088	1.204396	1.274725
00:00:00.147	1.322344	1.207326	1.297436
00:00:00.147	1.312821	1.267399	1.302564
00:00:00.148	1.312088	1.296703	1.304762
00:00:00.148	1.317216	1.275458	1.305495
00:00:00.149	1.304762	1.251282	1.289377
00:00:00.149	1.301832	1.284982	1.315751
00:00:00.181	1.304762	1.306227	1.319414
00:00:00.181	1.312821	1.314286	1.329670
00:00:00.182	1.315018	1.327473	1.312088
00:00:00.182	1.293773	1.316484	1.287179
00:00:00.182	1.317216	1.342857	1.300366
00:00:00.183	1.312088	1.342857	1.281319
00:00:00.183	1.295971	1.331136	1.285714
00:00:00.183	1.308425	1.332601	1.298168
00:00:00.184	1.293773	1.302564	1.290110
00:00:00.184	1.306227	1.318681	1.309158
00:00:00.185	1.306227	1.319414	1.306960
00:00:00.185	1.312088	1.302564	1.300366
00:00:00.185	1.322344	1.310623	1.317216
00:00:00.186	1.288645	1.301099	1.309158
00:00:00.186	1.276923	1.319414	1.317216
00:00:00.186	1.285714	1.342125	1.317216
00:00:00.188	1.287179	1.351648	1.309158
00:00:00.188	1.295971	1.323810	1.308425
00:00:00.188	1.299634	1.278388	1.285714
00:00:00.188	1.326740	1.289377	1.299634
00:00:00.188	1.339927	1.314286	1.304762
00:00:00.188	1.320879	1.306227	1.300366
00:00:00.189	1.316484	1.300366	1.283516
00:00:00.189	1.310623	1.304762	1.279121
00:00:00.191	1.304762	1.313553	1.295238
00:00:00.191	1.308425	1.295971	1.301099
00:00:00.191	1.301099	1.263004	1.294505
00:00:00.191	1.322344	1.260073	1.308425
00:00:00.192	1.320147	1.268132	1.300366
00:00:00.192	1.327473	1.290842	1.312821
00:00:00.192	1.309890	1.303297	1.315018
00:00:00.192	1.315018	1.319414	1.308425
00:00:00.192	1.315751	1.318681	1.317949
00:00:00.193	1.315751	1.309890	1.303297
00:00:00.193	1.306227	1.297436	1.302564
00:00:00.193	1.306227	1.289377	1.299634
00:00:00.197	1.312088	1.286447	1.295238
00:00:00.197	1.303297	1.302564	1.293040
00:00:00.197	1.301099	1.301832	1.285714
00:00:00.197	1.305495	1.314286	1.304762
00:00:00.197	1.322344	1.304029	1.288645
00:00:00.197	1.331136	1.309158	1.298901
00:00:00.197	1.326007	1.312821	1.309158
00:00:00.197	1.332601	1.312821	1.308425
00:00:00.197	1.305495	1.296703	1.309158
00:00:00.197	1.284982	1.296703	1.309890
00:00:00.197	1.293773	1.307692	1.316484
00:00:00.198	1.274725	1.306960	1.309890
00:00:00.198	1.274725	1.319414	1.312821
00:00:00.198	1.312088	1.339194	1.312088
00:00:00.231	1.365568	1.325275	1.300366
00:00:00.231	1.336996	1.295971	1.298168
00:00:00.231	1.315018	1.285714	1.305495
00:00:00.232	1.294505	1.284982	1.299634
00:00:00.232	1.255678	1.298901	1.305495
00:00:00.233	1.254945	1.291575	1.293773
00:00:00.233	1.284249	1.287179	1.276190
00:00:00.233	1.315018	1.323810	1.305495
00:00:00.234	1.294505	1.322344	1.305495
00:00:00.234	1.294505	1.336264	1.302564
00:00:00.234	1.333333	1.353114	1.339927
00:00:00.235	1.340659	1.373626	1.352381
00:00:00.235	1.311355	1.342857	1.334799
00:00:00.235	1.309158	1.311355	1.320879
00:00:00.236	1.298901	1.288645	1.299634
00:00:00.236	1.314286	1.249817	1.293773
00:00:00.236	1.326740	1.208791	1.296703
00:00:00.237	1.323810	1.216850	1.305495
00:00:00.237	1.333333	1.246154	1.300366
00:00:00.237	1.331136	1.252747	1.285714
00:00:00.238	1.332601	1.315018	1.295238
00:00:00.238	1.326740	1.407326	1.289377
00:00:00.239	1.311355	1.448352	1.290842
00:00:00.239	1.311355	1.432234	1.300366
00:00:00.239	1.303297	1.366300	1.300366
00:00:00.240	1.285714	1.328205	1.299634
00:00:00.240	1.282784	1.306227	1.298168
00:00:00.240	1.276190	1.308425	1.304762
00:00:00.241	1.282784	1.224908	1.296703
00:00:00.241	1.335531	1.172894	1.304029
00:00:00.241	1.361172	1.154579	1.307692
00:00:00.242	1.326740	1.172161	1.301832
00:00:00.242	1.315018	1.212454	1.308425
00:00:00.242	1.288645	1.298168	1.298901
00:00:00.243	1.268132	1.326007	1.298901
00:00:00.243	1.273260	1.346520	1.303297
00:00:00.244	1.302564	1.349451	1.303297
00:00:00.244	1.304029	1.316484	1.293773
00:00:00.244	1.309158	1.323810	1.300366
00:00:00.245	1.326007	1.336264	1.304029
00:00:00.245	1.326740	1.320879	1.300366
00:00:00.245	1.308425	1.295971	1.293040
00:00:00.246	1.334066	1.323810	1.300366
00:00:00.246	1.316484	1.317949	1.309890
00:00:00.246	1.322344	1.320879	1.308425
00:00:00.247	1.306960	1.322344	1.307692
00:00:00.247	1.295971	1.320879	1.308425
00:00:00.247	1.298901	1.334066	1.311355
00:00:00.248	1.295238	1.323077	1.311355
00:00:00.248	1.308425	1.314286	1.308425
00:00:00.280	1.309890	1.290110	1.298168
00:00:00.281	1.328205	1.301832	1.305495
00:00:00.281	1.339927	1.305495	1.304762
00:00:00.281	1.357509	1.309158	1.308425
00:00:00.282	1.317216	1.288645	1.290110
00:00:00.282	1.307692	1.303297	1.298168
00:00:00.283	1.295971	1.304762	1.283516
00:00:00.283	1.313553	1.333333	1.300366
00:00:00.283	1.312088	1.331868	1.300366
00:00:00.285	1.318681	1.329670	1.294505
00:00:00.285	1.309890	1.296703	1.290842
00:00:00.285	1.309158	1.273993	1.311355
00:00:00.286	1.292308	1.276923	1.297436
00:00:00.286	1.288645	1.286447	1.308425
00:00:00.286	1.295238	1.298901	1.308425
00:00:00.286	1.301832	1.296703	1.300366
00:00:00.286	1.303297	1.300366	1.303297
00:00:00.286	1.297436	1.296703	1.305495
00:00:00.288	1.296703	1.314286	1.311355
00:00:00.288	1.293773	1.317216	1.314286
00:00:00.288	1.290110	1.317949	1.330403
00:00:00.289	1.308425	1.313553	1.319414
00:00:00.289	1.312821	1.304762	1.295971
00:00:00.289	1.326007	1.313553	1.293040
00:00:00.289	1.318681	1.304762	1.279853
00:00:00.289	1.319414	1.309890	1.295971
00:00:00.290	1.314286	1.308425	1.295971
00:00:00.295	1.293773	1.307692	1.299634
00:00:00.295	1.312088	1.317949	1.317949
00:00:00.295	1.337729	1.306227	1.303297
00:00:00.295	1.344322	1.305495	1.306960
00:00:00.295	1.377289	1.298168	1.308425
00:00:00.295	1.339927	1.289377	1.306960
00:00:00.295	1.309158	1.300366	1.308425
00:00:00.295	1.287912	1.337729	1.315018
00:00:00.295	1.249817	1.364103	1.305495
00:00:00.295	1.251282	1.355311	1.309158
00:00:00.295	1.285714	1.305495	1.303297
00:00:00.295	1.282784	1.241758	1.298901
00:00:00.295	1.273993	1.203663	1.297436
00:00:00.295	1.281319	1.199267	1.293040
00:00:00.295	1.297436	1.241758	1.282784
00:00:00.295	1.320879	1.298901	1.302564
00:00:00.296	1.323810	1.306960	1.294505
00:00:00.296	1.309890	1.324542	1.298901
00:00:00.297	1.310623	1.343590	1.302564
00:00:00.297	1.326740	1.353846	1.306960
00:00:00.297	1.344322	1.345788	1.318681
00:00:00.298	1.325275	1.312821	1.310623
00:00:00.298	1.345055	1.316484	1.309890
00:00:00.330	1.347253	1.301099	1.312821
00:00:00.330	1.323077	1.283516	1.306960
00:00:00.331	1.309158	1.293040	1.301832
00:00:00.331	1.306227	1.301832	1.298901
00:00:00.332	1.298901	1.299634	1.300366
00:00:00.332	1.315018	1.312821	1.303297
00:00:00.332	1.296703	1.333333	1.294505
00:00:00.333	1.306227	1.345788	1.298901
00:00:00.333	1.309158	1.340659	1.306227
00:00:00.333	1.308425	1.342857	1.307692
00:00:00.334	1.311355	1.342857	1.309158
00:00:00.334	1.302564	1.316484	1.295971
00:00:00.334	1.315751	1.304762	1.307692
00:00:00.335	1.312821	1.291575	1.315018
00:00:00.335	1.305495	1.267399	1.312088
00:00:00.335	1.312088	1.264469	1.310623
00:00:00.336	1.312088	1.276923	1.313553
00:00:00.336	1.311355	1.280586	1.306227
00:00:00.337	1.319414	1.266667	1.304762
00:00:00.338	1.334066	1.298168	1.302564
00:00:00.338	1.337729	1.317216	1.300366
00:00:00.338	1.312088	1.348718	1.291575
00:00:00.338	1.284249	1.374359	1.293040
00:00:00.338	1.265201	1.350183	1.291575
00:00:00.339	1.263736	1.342857	1.290842
00:00:00.339	1.289377	1.336996	1.285714
00:00:00.339	1.307692	1.318681	1.293773
00:00:00.340	1.310623	1.298901	1.305495
00:00:00.340	1.313553	1.229304	1.297436
00:00:00.340	1.310623	1.203663	1.306227
00:00:00.341	1.315751	1.220513	1.310623
00:00:00.341	1.316484	1.228571	1.309158
00:00:00.342	1.307692	1.204396	1.310623
00:00:00.342	1.301832	1.265201	1.309890
00:00:00.342	1.311355	1.321612	1.300366
00:00:00.343	1.311355	1.318681	1.304762
00:00:00.343	1.307692	1.323810	1.302564
00:00:00.343	1.310623	1.361905	1.312088
00:00:00.344	1.310623	1.391209	1.298168
00:00:00.344	1.312821	1.412454	1.298168
00:00:00.344	1.308425	1.461538	1.293040
00:00:00.345	1.310623	1.394139	1.291575
00:00:00.345	1.316484	1.331868	1.295238
00:00:00.346	1.311355	1.243223	1.309158
00:00:00.346	1.305495	1.172894	1.303297
00:00:00.346	1.310623	1.165568	1.288645
00:00:00.347	1.326740	1.207326	1.309158
00:00:00.347	1.315751	1.227106	1.300366
00:00:00.347	1.320879	1.304029	1.310623
00:00:00.348	1.309890	1.360440	1.306960
00:00:00.381	1.315018	1.358242	1.319414
00:00:00.381	1.300366	1.353846	1.319414
00:00:00.381	1.298168	1.318681	1.300366
00:00:00.381	1.297436	1.306227	1.303297
00:00:00.381	1.293040	1.311355	1.298901
00:00:00.382	1.289377	1.306227	1.295238
00:00:00.382	1.299634	1.282051	1.289377
00:00:00.382	1.331136	1.295238	1.294505
00:00:00.384	1.331136	1.304029	1.286447
00:00:00.384	1.307692	1.320879	1.297436
00:00:00.384	1.298168	1.325275	1.300366
00:00:00.384	1.288645	1.331136	1.305495
00:00:00.384	1.309158	1.328938	1.311355
00:00:00.384	1.298168	1.315751	1.322344
00:00:00.389	1.303297	1.293040	1.317216
00:00:00.389	1.315018	1.284982	1.317216
00:00:00.389	1.295971	1.279853	1.315751
00:00:00.389	1.310623	1.290842	1.312088
00:00:00.389	1.316484	1.298901	1.300366
00:00:00.389	1.312088	1.323810	1.312088
00:00:00.389	1.306227	1.330403	1.304029
00:00:00.389	1.302564	1.320879	1.286447
00:00:00.389	1.305495	1.312821	1.284982
00:00:00.389	1.296703	1.312821	1.285714
00:00:00.389	1.295971	1.319414	1.291575
00:00:00.389	1.302564	1.320147	1.293040
00:00:00.390	1.334066	1.309890	1.290110
00:00:00.390	1.339194	1.315751	1.309890
00:00:00.390	1.321612	1.309890	1.315751
00:00:00.390	1.313553	1.303297	1.315751
00:00:00.391	1.315751	1.314286	1.336996
00:00:00.391	1.323077	1.293040	1.320879
00:00:00.391	1.319414	1.287912	1.318681
00:00:00.392	1.321612	1.296703	1.312821
00:00:00.392	1.299634	1.280586	1.295971
00:00:00.392	1.300366	1.292308	1.304762
00:00:00.393	1.295971	1.287912	1.297436
00:00:00.393	1.293773	1.291575	1.295238
00:00:00.393	1.306227	1.310623	1.298901
00:00:00.394	1.313553	1.318681	1.285714
00:00:00.394	1.295971	1.312088	1.272527
00:00:00.395	1.307692	1.325275	1.283516
00:00:00.395	1.281319	1.323810	1.288645
00:00:00.395	1.290110	1.323077	1.338462
00:00:00.396	1.295971	1.315018	1.332601
00:00:00.396	1.317949	1.302564	1.323077
00:00:00.396	1.355311	1.304029	1.304762
00:00:00.397	1.351648	1.290842	1.297436
00:00:00.397	1.320147	1.290842	1.309158
00:00:00.397	1.296703	1.292308	1.313553
00:00:00.430	1.291575	1.292308	1.314286
00:00:00.430	1.295238	1.291575	1.305495
00:00:00.430	1.332601	1.288645	1.295971
00:00:00.431	1.332601	1.295971	1.298901
00:00:00.431	1.315018	1.306227	1.301832
00:00:00.431	1.291575	1.300366	1.288645
00:00:00.432	1.280586	1.314286	1.304762
00:00:00.432	1.285714	1.311355	1.294505
00:00:00.432	1.305495	1.309890	1.295971
00:00:00.433	1.304762	1.311355	1.297436
00:00:00.433	1.300366	1.303297	1.289377
00:00:00.434	1.312821	1.309890	1.293040
00:00:00.434	1.315751	1.307692	1.291575
00:00:00.434	1.314286	1.311355	1.298901
00:00:00.435	1.325275	1.313553	1.345788
00:00:00.435	1.312088	1.293773	1.326740
00:00:00.435	1.315751	1.300366	1.315018
00:00:00.436	1.303297	1.290842	1.310623
00:00:00.436	1.302564	1.296703	1.310623
00:00:00.436	1.320147	1.298901	1.305495
00:00:00.437	1.314286	1.290842	1.295238
00:00:00.437	1.314286	1.313553	1.308425
00:00:00.437	1.315751	1.316484	1.322344
00:00:00.438	1.315018	1.316484	1.317949
00:00:00.438	1.302564	1.295971	1.320147
00:00:00.439	1.304029	1.310623	1.305495
00:00:00.439	1.320879	1.316484	1.310623
00:00:00.439	1.317949	1.313553	1.323810
00:00:00.440	1.317949	1.317216	1.297436
00:00:00.440	1.295238	1.291575	1.295238
00:00:00.440	1.306227	1.303297	1.262271
00:00:00.441	1.296703	1.291575	1.244689
00:00:00.441	1.296703	1.287179	1.243223
00:00:00.442	1.290110	1.290110	1.246886
00:00:00.442	1.290842	1.284982	1.255678
00:00:00.442	1.317216	1.304762	1.312088
00:00:00.442	1.350916	1.307692	1.315751
00:00:00.444	1.343590	1.309158	1.319414
00:00:00.444	1.290110	1.317949	1.323810
00:00:00.444	1.276190	1.306960	1.311355
00:00:00.444	1.306960	1.316484	1.312821
00:00:00.444	1.307692	1.309158	1.304029
00:00:00.445	1.322344	1.303297	1.307692
00:00:00.445	1.323077	1.297436	1.305495
00:00:00.445	1.311355	1.306227	1.306960
00:00:00.448	1.311355	1.304762	1.270330
00:00:00.448	1.315751	1.306227	1.293040
00:00:00.448	1.309890	1.302564	1.316484
00:00:00.448	1.300366	1.295238	1.379487
00:00:00.448	1.299634	1.296703	1.380220
00:00:00.480	1.310623	1.302564	1.320147
00:00:00.480	1.323810	1.306960	1.319414
00:00:00.480	1.322344	1.299634	1.308425
00:00:00.480	1.331868	1.293040	1.323077
00:00:00.485	1.323810	1.302564	1.308425
00:00:00.485	1.312088	1.301832	1.248352
00:00:00.485	1.315751	1.307692	1.255678
00:00:00.485	1.305495	1.308425	1.271062
00:00:00.485	1.293040	1.309890	1.282784
00:00:00.485	1.278388	1.306227	1.287179
00:00:00.485	1.228571	1.307692	1.295238
00:00:00.485	1.252015	1.308425	1.295238
00:00:00.485	1.301832	1.302564	1.302564
00:00:00.485	1.332601	1.305495	1.295971
00:00:00.485	1.331136	1.310623	1.306960
00:00:00.485	1.324542	1.311355	1.326740
00:00:00.485	1.316484	1.306960	1.345788
00:00:00.485	1.326740	1.310623	1.336264
00:00:00.486	1.321612	1.306960	1.306227
00:00:00.486	1.313553	1.306227	1.304029
00:00:00.486	1.309158	1.304762	1.308425
00:00:00.487	1.315751	1.299634	1.298901
00:00:00.487	1.310623	1.293040	1.292308
00:00:00.488	1.309890	1.309890	1.309158
00:00:00.488	1.301832	1.301099	1.295971
00:00:00.488	1.315018	1.312088	1.296703
00:00:00.489	1.317216	1.318681	1.293040
00:00:00.489	1.316484	1.318681	1.302564
00:00:00.489	1.309158	1.307692	1.287179
00:00:00.490	1.300366	1.293040	1.288645
00:00:00.490	1.306960	1.294505	1.297436
00:00:00.490	1.304762	1.289377	1.303297
00:00:00.491	1.301099	1.301099	1.319414
00:00:00.491	1.315018	1.295971	1.320147
00:00:00.491	1.315018	1.302564	1.308425
00:00:00.492	1.316484	1.303297	1.313553
00:00:00.492	1.308425	1.291575	1.341392
00:00:00.493	1.320879	1.301832	1.339927
00:00:00.493	1.320879	1.299634	1.308425
00:00:00.493	1.299634	1.299634	1.259341
00:00:00.494	1.298901	1.303297	1.237363
00:00:00.494	1.300366	1.301832	1.253480
00:00:00.494	1.298901	1.306227	1.284982
00:00:00.495	1.302564	1.322344	1.317216
00:00:00.495	1.296703	1.307692	1.306227
00:00:00.495	1.319414	1.316484	1.315018
00:00:00.496	1.309158	1.306960	1.309890
00:00:00.496	1.320147	1.299634	1.320147
00:00:00.496	1.317949	1.300366	1.320147
00:00:00.497	1.306227	1.308425	1.327473
00:00:00.529	1.306960	1.304029	1.330403
00:00:00.529	1.312088	1.304762	1.315018
00:00:00.530	1.304762	1.295238	1.309890
00:00:00.530	1.317949	1.301832	1.309890
00:00:00.530	1.312088	1.301099	1.300366
00:00:00.531	1.310623	1.305495	1.297436
00:00:00.531	1.309158	1.318681	1.294505
00:00:00.532	1.297436	1.320879	1.282051
00:00:00.532	1.278388	1.315751	1.287912
00:00:00.532	1.294505	1.302564	1.295238
00:00:00.533	1.290110	1.313553	1.306960
00:00:00.533	1.294505	1.305495	1.299634
00:00:00.533	1.306227	1.312088	1.309890
00:00:00.534	1.318681	1.301099	1.306227
00:00:00.534	1.316484	1.302564	1.304762
00:00:00.534	1.318681	1.296703	1.310623
00:00:00.535	1.334799	1.296703	1.317216
00:00:00.535	1.350183	1.300366	1.313553
00:00:00.535	1.328938	1.299634	1.315018
00:00:00.536	1.313553	1.313553	1.315018
00:00:00.536	1.315751	1.311355	1.307692
00:00:00.537	1.308425	1.306960	1.304762
00:00:00.537	1.301832	1.318681	1.300366
00:00:00.537	1.303297	1.309158	1.289377
00:00:00.538	1.304762	1.304762	1.303297
00:00:00.538	1.315751	1.309158	1.300366
00:00:00.538	1.304762	1.306960	1.276190
00:00:00.539	1.309158	1.300366	1.293040
00:00:00.539	1.309158	1.290110	1.303297
00:00:00.539	1.314286	1.303297	1.307692
00:00:00.542	1.315751	1.314286	1.312821
00:00:00.542	1.318681	1.314286	1.316484
00:00:00.542	1.320879	1.313553	1.315751
00:00:00.542	1.308425	1.312821	1.313553
00:00:00.542	1.300366	1.305495	1.310623
00:00:00.542	1.315018	1.304762	1.314286
00:00:00.542	1.300366	1.276923	1.304762
00:00:00.542	1.309890	1.257875	1.306960
00:00:00.544	1.306960	1.258608	1.297436
00:00:00.544	1.302564	1.288645	1.298901
00:00:00.544	1.312821	1.312821	1.300366
00:00:00.545	1.320147	1.319414	1.296703
00:00:00.545	1.308425	1.330403	1.300366
00:00:00.545	1.298168	1.326007	1.298168
00:00:00.545	1.290842	1.311355	1.299634
00:00:00.545	1.304029	1.317216	1.300366
00:00:00.546	1.304762	1.303297	1.296703
00:00:00.551	1.320879	1.310623	1.315751
00:00:00.551	1.310623	1.307692	1.311355
00:00:00.551	1.309890	1.303297	1.313553
00:00:00.583	1.311355	1.302564	1.312821
00:00:00.583	1.309158	1.290842	1.298168
00:00:00.583	1.321612	1.309158	1.317216
00:00:00.583	1.319414	1.305495	1.307692
00:00:00.583	1.312088	1.335531	1.309158
00:00:00.583	1.310623	1.394139	1.295971
00:00:00.583	1.306960	1.388278	1.294505
00:00:00.583	1.310623	1.348718	1.293773
00:00:00.583	1.313553	1.293040	1.299634
00:00:00.583	1.304762	1.254945	1.303297
00:00:00.583	1.305495	1.243223	1.303297
00:00:00.583	1.304029	1.244689	1.304762
00:00:00.583	1.325275	1.256410	1.300366
00:00:00.583	1.349451	1.279121	1.306227
00:00:00.584	1.335531	1.279853	1.312088
00:00:00.584	1.306227	1.290110	1.307692
00:00:00.585	1.280586	1.292308	1.305495
00:00:00.585	1.280586	1.306960	1.312821
00:00:00.585	1.273993	1.306960	1.311355
00:00:00.586	1.295238	1.297436	1.304762
00:00:00.586	1.314286	1.306227	1.309158
00:00:00.586	1.307692	1.326007	1.310623
00:00:00.587	1.306960	1.332601	1.304029
00:00:00.587	1.299634	1.334066	1.295238
00:00:00.587	1.306227	1.326740	1.295238
00:00:00.588	1.310623	1.320147	1.300366
00:00:00.588	1.314286	1.324542	1.295971
00:00:00.588	1.317949	1.309158	1.306227
00:00:00.589	1.324542	1.309158	1.304762
00:00:00.589	1.318681	1.311355	1.304029
00:00:00.590	1.321612	1.310623	1.312088
00:00:00.590	1.317949	1.305495	1.315018
00:00:00.590	1.309158	1.298168	1.302564
00:00:00.591	1.305495	1.295238	1.311355
00:00:00.591	1.312088	1.299634	1.312088
00:00:00.591	1.307692	1.297436	1.291575
00:00:00.592	1.309158	1.298168	1.304029
00:00:00.592	1.315018	1.312088	1.303297
00:00:00.592	1.312088	1.315751	1.300366
00:00:00.593	1.318681	1.317216	1.304029
00:00:00.593	1.309890	1.319414	1.298168
00:00:00.593	1.309158	1.317216	1.287912
00:00:00.594	1.311355	1.317949	1.306960
00:00:00.594	1.306227	1.305495	1.290842
00:00:00.595	1.317216	1.320879	1.293773
00:00:00.595	1.311355	1.320879	1.303297
00:00:00.595	1.310623	1.315751	1.310623
00:00:00.596	1.306960	1.309158	1.308425
00:00:00.596	1.319414	1.306960	1.317216
00:00:00.596	1.304762	1.284249	1.312088
00:00:00.629	1.311355	1.282051	1.317949
00:00:00.629	1.296703	1.268132	1.304029
00:00:00.629	1.309890	1.278388	1.309158
00:00:00.631	1.308425	1.283516	1.306960
00:00:00.631	1.302564	1.285714	1.297436
00:00:00.631	1.316484	1.304029	1.287912
00:00:00.631	1.320147	1.306227	1.280586
00:00:00.631	1.322344	1.312821	1.315751
00:00:00.631	1.332601	1.317216	1.309890
00:00:00.632	1.316484	1.315018	1.298168
00:00:00.632	1.301832	1.311355	1.294505
00:00:00.632	1.294505	1.294505	1.299634
00:00:00.633	1.311355	1.306960	1.299634
00:00:00.633	1.299634	1.298168	1.304762
00:00:00.634	1.300366	1.309890	1.309158
00:00:00.634	1.297436	1.295238	1.310623
00:00:00.634	1.311355	1.304029	1.312088
00:00:00.635	1.308425	1.296703	1.312088
00:00:00.635	1.306960	1.294505	1.306227
00:00:00.635	1.301832	1.296703	1.300366
00:00:00.638	1.303297	1.304029	1.306960
00:00:00.638	1.295971	1.304029	1.305495
00:00:00.638	1.293773	1.298168	1.293773
00:00:00.638	1.313553	1.312088	1.296703
00:00:00.638	1.307692	1.312821	1.281319
00:00:00.638	1.306227	1.318681	1.300366
00:00:00.638	1.315018	1.320879	1.303297
00:00:00.638	1.300366	1.313553	1.298168
00:00:00.640	1.316484	1.323077	1.308425
00:00:00.640	1.313553	1.300366	1.302564
00:00:00.640	1.304029	1.293040	1.312088
00:00:00.640	1.313553	1.294505	1.312821
00:00:00.640	1.300366	1.279853	1.300366
00:00:00.640	1.312088	1.293773	1.309158
00:00:00.641	1.313553	1.297436	1.312088
00:00:00.641	1.312088	1.302564	1.320879
00:00:00.641	1.315018	1.301099	1.299634
00:00:00.646	1.309890	1.305495	1.293773
00:00:00.646	1.290842	1.318681	1.290842
00:00:00.646	1.317216	1.331136	1.329670
00:00:00.646	1.319414	1.333333	1.333333
00:00:00.646	1.309158	1.311355	1.298168
00:00:00.646	1.311355	1.302564	1.283516
00:00:00.646	1.300366	1.306227	1.285714
00:00:00.646	1.295971	1.290842	1.267399
00:00:00.646	1.310623	1.306960	1.287179
00:00:00.646	1.312088	1.306227	1.288645
00:00:00.646	1.317216	1.303297	1.297436
00:00:00.646	1.315018	1.287912	1.307692
00:00:00.646	1.312088	1.292308	1.319414
00:00:00.679	1.315751	1.293773	1.316484
00:00:00.679	1.313553	1.290842	1.322344
00:00:00.679	1.312088	1.295238	1.317216
00:00:00.679	1.306960	1.296703	1.306960
00:00:00.680	1.301832	1.281319	1.302564
00:00:00.680	1.304762	1.298168	1.304029
00:00:00.680	1.309890	1.302564	1.298168
00:00:00.681	1.304762	1.300366	1.296703
00:00:00.681	1.300366	1.304762	1.290842
00:00:00.681	1.309890	1.298168	1.294505
00:00:00.683	1.331868	1.317949	1.296703
00:00:00.683	1.316484	1.312821	1.286447
00:00:00.683	1.327473	1.328205	1.312821
00:00:00.683	1.308425	1.317949	1.311355
00:00:00.683	1.305495	1.317216	1.309158
00:00:00.684	1.313553	1.307692	1.317949
00:00:00.684	1.315018	1.301832	1.317949
00:00:00.684	1.302564	1.294505	1.317949
00:00:00.685	1.263004	1.287912	1.297436
00:00:00.685	1.276190	1.287179	1.300366
00:00:00.685	1.312088	1.304029	1.306960
00:00:00.686	1.319414	1.297436	1.303297
00:00:00.686	1.311355	1.310623	1.300366
00:00:00.686	1.304029	1.306227	1.285714
00:00:00.687	1.307692	1.304029	1.287912
00:00:00.687	1.308425	1.320147	1.299634
00:00:00.688	1.312821	1.339194	1.295971
00:00:00.688	1.306227	1.336996	1.287179
00:00:00.688	1.293773	1.334066	1.298901
00:00:00.689	1.291575	1.309158	1.300366
00:00:00.689	1.294505	1.275458	1.290842
00:00:00.689	1.300366	1.265934	1.304029
00:00:00.690	1.310623	1.257875	1.312088
00:00:00.690	1.320879	1.261538	1.317949
00:00:00.690	1.318681	1.261538	1.314286
00:00:00.691	1.336264	1.283516	1.315018
00:00:00.691	1.325275	1.317949	1.311355
00:00:00.691	1.313553	1.334066	1.310623
00:00:00.692	1.305495	1.323077	1.294505
00:00:00.692	1.309890	1.315751	1.298168
00:00:00.693	1.320147	1.296703	1.297436
00:00:00.693	1.304029	1.290110	1.288645
00:00:00.693	1.291575	1.295238	1.290110
00:00:00.694	1.306960	1.295971	1.299634
00:00:00.694	1.306960	1.311355	1.300366
00:00:00.694	1.311355	1.316484	1.301832
00:00:00.695	1.303297	1.315751	1.293773
00:00:00.695	1.304029	1.336996	1.312821
00:00:00.695	1.276190	1.330403	1.309158
00:00:00.696	1.282051	1.322344	1.307692
00:00:00.728	1.309158	1.320879	1.309158
00:00:00.728	1.305495	1.295238	1.311355
00:00:00.729	1.313553	1.282784	1.312088
00:00:00.729	1.320147	1.294505	1.311355
00:00:00.729	1.314286	1.276923	1.295238
00:00:00.730	1.328205	1.289377	1.298901
00:00:00.730	1.380220	1.302564	1.303297
00:00:00.730	1.348718	1.304762	1.287912
00:00:00.732	1.299634	1.321612	1.284982
00:00:00.732	1.227839	1.328938	1.296703
00:00:00.732	1.223443	1.325275	1.297436
00:00:00.732	1.279853	1.317216	1.307692
00:00:00.732	1.300366	1.299634	1.298168
00:00:00.734	1.271062	1.293040	1.308425
00:00:00.734	1.341392	1.279121	1.315018
00:00:00.734	1.350183	1.252747	1.301099
00:00:00.734	1.321612	1.283516	1.297436
00:00:00.736	1.323810	1.315751	1.304029
00:00:00.736	1.351648	1.317216	1.310623
00:00:00.736	1.356044	1.327473	1.304029
00:00:00.736	1.326740	1.328938	1.309158
00:00:00.736	1.329670	1.327473	1.309158
00:00:00.737	1.336264	1.317216	1.301832
00:00:00.737	1.323810	1.314286	1.293040
00:00:00.737	1.269597	1.323810	1.295238
00:00:00.737	1.279853	1.300366	1.290842
00:00:00.737	1.301832	1.291575	1.300366
00:00:00.738	1.309158	1.271062	1.299634
00:00:00.743	1.308425	1.284249	1.309158
00:00:00.743	1.307692	1.291575	1.307692
00:00:00.743	1.284982	1.276190	1.306227
00:00:00.743	1.277656	1.260806	1.306960
00:00:00.743	1.309158	1.288645	1.315018
00:00:00.743	1.308425	1.299634	1.309158
00:00:00.743	1.301099	1.326007	1.316484
00:00:00.743	1.298901	1.361172	1.307692
00:00:00.743	1.309158	1.455678	1.302564
00:00:00.743	1.315018	1.442491	1.317949
00:00:00.743	1.313553	1.347985	1.295238
00:00:00.743	1.308425	1.282051	1.300366
00:00:00.743	1.309890	1.209524	1.290842
00:00:00.743	1.298168	1.153846	1.282051
00:00:00.743	1.306227	1.177289	1.297436
00:00:00.743	1.301099	1.172894	1.290842
00:00:00.745	1.302564	1.210256	1.297436
00:00:00.745	1.312088	1.298168	1.296703
00:00:00.745	1.321612	1.378755	1.299634
00:00:00.745	1.334066	1.402930	1.320147
00:00:00.745	1.331136	1.410256	1.319414
00:00:00.745	1.312088	1.359707	1.309890
00:00:00.778	1.322344	1.308425	1.317216
00:00:00.778	1.309890	1.299634	1.309890
00:00:00.778	1.300366	1.309158	1.314286
00:00:00.779	1.287912	1.304029	1.314286
00:00:00.779	1.295971	1.299634	1.298168
00:00:00.779	1.304029	1.304762	1.306960
00:00:00.780	1.310623	1.296703	1.294505
00:00:00.780	1.304762	1.294505	1.276923
00:00:00.781	1.304762	1.317949	1.291575
00:00:00.781	1.314286	1.323810	1.289377
00:00:00.781	1.313553	1.323810	1.295971
00:00:00.782	1.310623	1.324542	1.298901
00:00:00.782	1.304029	1.328938	1.291575
00:00:00.782	1.312821	1.354579	1.307692
00:00:00.783	1.307692	1.342857	1.310623
00:00:00.783	1.321612	1.370696	1.318681
00:00:00.783	1.315751	1.304029	1.315018
00:00:00.784	1.312821	1.233700	1.314286
00:00:00.784	1.318681	1.223443	1.320147
00:00:00.784	1.320147	1.239560	1.318681
00:00:00.785	1.298168	1.221978	1.303297
00:00:00.785	1.305495	1.232234	1.303297
00:00:00.786	1.306227	1.249817	1.295971
00:00:00.786	1.307692	1.306227	1.292308
00:00:00.787	1.309158	1.344322	1.289377
00:00:00.787	1.306227	1.369963	1.281319
00:00:00.787	1.302564	1.400000	1.293773
00:00:00.787	1.304762	1.374359	1.292308
00:00:00.788	1.301832	1.348718	1.307692
00:00:00.788	1.303297	1.319414	1.306227
00:00:00.788	1.303297	1.306227	1.302564
00:00:00.789	1.321612	1.294505	1.312821
00:00:00.789	1.320879	1.272527	1.310623
00:00:00.789	1.320147	1.270330	1.314286
00:00:00.790	1.312088	1.295971	1.312821
00:00:00.790	1.318681	1.319414	1.315751
00:00:00.791	1.314286	1.318681	1.309890
00:00:00.791	1.298901	1.310623	1.299634
00:00:00.791	1.301832	1.326740	1.304029
00:00:00.792	1.312821	1.334799	1.306960
00:00:00.792	1.312088	1.310623	1.308425
00:00:00.792	1.304762	1.271795	1.283516
00:00:00.793	1.312088	1.249084	1.292308
