timestamp	ch1	ch2	ch3
00:00:00.000	1.319414	1.308425	1.306960
00:00:00.000	1.304762	1.315018	1.302564
00:00:00.001	1.305495	1.347253	1.292308
00:00:00.002	1.307692	1.347253	1.295971
00:00:00.002	1.313553	1.349451	1.306960
00:00:00.002	1.314286	1.345055	1.301099
00:00:00.002	1.317216	1.353846	1.289377
00:00:00.002	1.312088	1.368498	1.304762
00:00:00.003	1.297436	1.380220	1.296703
00:00:00.003	1.310623	1.404396	1.306227
00:00:00.003	1.312088	1.369231	1.304762
00:00:00.004	1.310623	1.317216	1.317949
00:00:00.004	1.300366	1.242491	1.317216
00:00:00.005	1.280586	1.189011	1.312821
00:00:00.005	1.298168	1.189744	1.304029
00:00:00.005	1.288645	1.153114	1.290110
00:00:00.006	1.291575	1.178755	1.298901
00:00:00.006	1.313553	1.257875	1.300366
00:00:00.006	1.317216	1.347253	1.295971
00:00:00.007	1.333333	1.424908	1.298901
00:00:00.007	1.320147	1.408791	1.304762
00:00:00.007	1.308425	1.396337	1.302564
00:00:00.008	1.300366	1.339927	1.291575
00:00:00.008	1.311355	1.291575	1.304029
00:00:00.008	1.305495	1.304029	1.298168
00:00:00.009	1.340659	1.295238	1.312088
00:00:00.009	1.327473	1.249084	1.298901
00:00:00.010	1.314286	1.238095	1.303297
00:00:00.010	1.306227	1.265201	1.314286
00:00:00.010	1.290110	1.273260	1.290842
00:00:00.011	1.295238	1.288645	1.306227
00:00:00.011	1.274725	1.270330	1.308425
00:00:00.011	1.270330	1.311355	1.303297
00:00:00.012	1.256410	1.331136	1.301832
00:00:00.012	1.262271	1.331868	1.315751
00:00:00.012	1.283516	1.333333	1.316484
00:00:00.013	1.293773	1.336264	1.306227
00:00:00.013	1.334066	1.337729	1.310623
00:00:00.013	1.372894	1.323077	1.297436
00:00:00.014	1.364103	1.348718	1.298168
00:00:00.014	1.317949	1.345788	1.302564
00:00:00.015	1.300366	1.320879	1.291575
00:00:00.015	1.326740	1.315751	1.304762
00:00:00.015	1.323077	1.301832	1.297436
00:00:00.016	1.324542	1.288645	1.308425
00:00:00.016	1.306960	1.285714	1.305495
00:00:00.016	1.294505	1.279853	1.300366
00:00:00.018	1.324542	1.293040	1.307692
00:00:00.018	1.320879	1.292308	1.302564
00:00:00.018	1.323077	1.301832	1.307692
00:00:00.053	1.288645	1.302564	1.290842
00:00:00.053	1.265201	1.298901	1.298901
00:00:00.053	1.265201	1.312821	1.307692
00:00:00.053	1.295971	1.305495	1.306960
00:00:00.053	1.326007	1.307692	1.312088
00:00:00.053	1.321612	1.317216	1.297436
00:00:00.053	1.315751	1.315751	1.291575
00:00:00.053	1.315751	1.311355	1.285714
00:00:00.053	1.331868	1.338462	1.295971
00:00:00.053	1.315018	1.317949	1.293773
00:00:00.055	1.290110	1.299634	1.306227
00:00:00.055	1.289377	1.276923	1.305495
00:00:00.055	1.306960	1.268864	1.314286
00:00:00.055	1.331136	1.276923	1.314286
00:00:00.055	1.339194	1.335531	1.306960
00:00:00.055	1.343590	1.358974	1.318681
00:00:00.055	1.312088	1.358242	1.314286
00:00:00.060	1.296703	1.351648	1.313553
00:00:00.060	1.297436	1.321612	1.306960
00:00:00.060	1.287179	1.279853	1.292308
00:00:00.060	1.305495	1.241026	1.299634
00:00:00.060	1.303297	1.189744	1.285714
00:00:00.060	1.298901	1.197802	1.285714
00:00:00.060	1.298901	1.224176	1.278388
00:00:00.060	1.318681	1.277656	1.284982
00:00:00.060	1.315751	1.337729	1.294505
00:00:00.060	1.329670	1.315751	1.304762
00:00:00.060	1.328205	1.291575	1.311355
00:00:00.060	1.329670	1.305495	1.310623
00:00:00.060	1.316484	1.313553	1.315018
00:00:00.060	1.297436	1.334066	1.330403
00:00:00.061	1.287912	1.342857	1.326740
00:00:00.061	1.272527	1.306960	1.313553
00:00:00.061	1.285714	1.334799	1.298901
00:00:00.062	1.290842	1.302564	1.297436
00:00:00.062	1.288645	1.317216	1.306227
00:00:00.062	1.279121	1.342857	1.301832
00:00:00.063	1.286447	1.373626	1.298168
00:00:00.063	1.317216	1.378755	1.300366
00:00:00.064	1.319414	1.345788	1.287179
00:00:00.064	1.320879	1.280586	1.303297
00:00:00.064	1.322344	1.224908	1.291575
00:00:00.065	1.320147	1.224176	1.303297
00:00:00.065	1.318681	1.258608	1.306960
00:00:00.065	1.335531	1.240293	1.295238
00:00:00.066	1.329670	1.265201	1.294505
00:00:00.066	1.295971	1.274725	1.300366
00:00:00.066	1.297436	1.290842	1.311355
00:00:00.067	1.293040	1.325275	1.312088
00:00:00.067	1.298901	1.340659	1.320879
00:00:00.099	1.330403	1.326740	1.308425
00:00:00.100	1.342857	1.354579	1.303297
00:00:00.100	1.332601	1.373626	1.304762
00:00:00.100	1.305495	1.336264	1.304762
00:00:00.101	1.281319	1.274725	1.300366
00:00:00.101	1.312088	1.267399	1.298901
00:00:00.101	1.299634	1.310623	1.298901
00:00:00.102	1.296703	1.306960	1.297436
00:00:00.102	1.309890	1.293773	1.306227
00:00:00.103	1.315018	1.283516	1.300366
00:00:00.103	1.327473	1.298168	1.296703
00:00:00.103	1.328938	1.342125	1.313553
00:00:00.104	1.316484	1.323810	1.306227
00:00:00.104	1.325275	1.318681	1.310623
00:00:00.104	1.305495	1.302564	1.303297
00:00:00.105	1.298901	1.293773	1.310623
00:00:00.105	1.323810	1.315018	1.306227
00:00:00.106	1.313553	1.322344	1.298901
00:00:00.106	1.326007	1.323810	1.304762
00:00:00.106	1.320879	1.304762	1.293040
00:00:00.106	1.306960	1.301099	1.295971
00:00:00.107	1.299634	1.304762	1.293040
00:00:00.107	1.295971	1.303297	1.292308
00:00:00.108	1.270330	1.276923	1.293040
00:00:00.108	1.278388	1.272527	1.291575
00:00:00.108	1.298901	1.316484	1.306227
00:00:00.109	1.294505	1.313553	1.298168
00:00:00.109	1.318681	1.283516	1.303297
00:00:00.109	1.320879	1.273993	1.301832
00:00:00.110	1.309890	1.274725	1.312088
00:00:00.110	1.316484	1.277656	1.309890
00:00:00.110	1.313553	1.271062	1.303297
00:00:00.111	1.323810	1.308425	1.312088
00:00:00.111	1.312821	1.314286	1.306960
00:00:00.112	1.312821	1.321612	1.312821
00:00:00.112	1.293773	1.321612	1.304029
00:00:00.112	1.294505	1.372894	1.304029
00:00:00.114	1.309158	1.397802	1.304762
00:00:00.114	1.306227	1.369963	1.303297
00:00:00.114	1.315751	1.351648	1.305495
00:00:00.117	1.373626	1.307692	1.304029
00:00:00.117	1.368498	1.271795	1.293773
00:00:00.117	1.374359	1.283516	1.307692
00:00:00.117	1.319414	1.264469	1.300366
00:00:00.117	1.267399	1.249084	1.306227
00:00:00.117	1.279121	1.245421	1.304762
00:00:00.117	1.270330	1.252747	1.298901
00:00:00.117	1.251282	1.273260	1.307692
00:00:00.118	1.258608	1.273993	1.307692
00:00:00.118	1.276190	1.251282	1.298901
00:00:00.149	1.302564	1.281319	1.304762
00:00:00.149	1.297436	1.292308	1.300366
00:00:00.150	1.314286	1.314286	1.304762
00:00:00.150	1.308425	1.333333	1.302564
00:00:00.151	1.308425	1.342857	1.300366
00:00:00.151	1.298168	1.343590	1.298168
00:00:00.151	1.302564	1.347253	1.309158
00:00:00.156	1.307692	1.338462	1.311355
00:00:00.156	1.314286	1.326740	1.303297
00:00:00.156	1.317949	1.325275	1.306227
00:00:00.156	1.335531	1.332601	1.300366
00:00:00.156	1.362637	1.364103	1.304762
00:00:00.156	1.342857	1.356777	1.314286
00:00:00.156	1.325275	1.339927	1.327473
00:00:00.156	1.312821	1.327473	1.316484
00:00:00.156	1.296703	1.289377	1.298168
00:00:00.156	1.285714	1.271795	1.306227
00:00:00.156	1.304762	1.266667	1.321612
00:00:00.156	1.296703	1.284982	1.298901
00:00:00.156	1.307692	1.263004	1.287912
00:00:00.156	1.312088	1.255678	1.295971
00:00:00.157	1.338462	1.257143	1.300366
00:00:00.157	1.340659	1.250549	1.300366
00:00:00.157	1.312088	1.250549	1.278388
00:00:00.158	1.284982	1.286447	1.281319
00:00:00.158	1.288645	1.291575	1.291575
00:00:00.158	1.312821	1.303297	1.287912
00:00:00.159	1.341392	1.334799	1.306227
00:00:00.159	1.364835	1.371429	1.306227
00:00:00.159	1.353846	1.378022	1.316484
00:00:00.160	1.312088	1.356777	1.315751
00:00:00.160	1.271062	1.339194	1.304762
00:00:00.161	1.271062	1.367766	1.323810
00:00:00.161	1.273260	1.356777	1.316484
00:00:00.161	1.292308	1.331136	1.311355
00:00:00.162	1.304029	1.307692	1.301832
00:00:00.162	1.299634	1.266667	1.290110
00:00:00.162	1.305495	1.253480	1.293040
00:00:00.163	1.304029	1.220513	1.279121
00:00:00.163	1.317949	1.265934	1.289377
00:00:00.163	1.323077	1.302564	1.280586
00:00:00.164	1.347253	1.293773	1.289377
00:00:00.164	1.336264	1.284982	1.303297
00:00:00.164	1.315018	1.274725	1.294505
00:00:00.165	1.300366	1.276923	1.304029
00:00:00.165	1.299634	1.276923	1.306960
00:00:00.166	1.289377	1.266667	1.323077
00:00:00.166	1.289377	1.255678	1.305495
00:00:00.166	1.309158	1.273993	1.313553
00:00:00.167	1.310623	1.280586	1.297436
00:00:00.199	1.311355	1.296703	1.302564
00:00:00.199	1.332601	1.326007	1.309890
00:00:00.200	1.320879	1.342857	1.298901
00:00:00.200	1.293040	1.348718	1.306960
00:00:00.200	1.257143	1.321612	1.282784
00:00:00.201	1.265934	1.328205	1.295238
00:00:00.201	1.295238	1.334066	1.297436
00:00:00.201	1.319414	1.330403	1.305495
00:00:00.202	1.336264	1.320147	1.301832
00:00:00.202	1.353114	1.326740	1.302564
00:00:00.202	1.343590	1.320147	1.306960
00:00:00.203	1.324542	1.312821	1.306960
00:00:00.203	1.293040	1.315018	1.311355
00:00:00.203	1.301099	1.301099	1.308425
00:00:00.205	1.304762	1.296703	1.305495
00:00:00.205	1.299634	1.301832	1.310623
00:00:00.205	1.317949	1.279853	1.299634
00:00:00.205	1.319414	1.296703	1.297436
00:00:00.205	1.311355	1.301099	1.303297
00:00:00.206	1.312088	1.320147	1.294505
00:00:00.206	1.297436	1.331868	1.298168
00:00:00.206	1.292308	1.295238	1.300366
00:00:00.207	1.307692	1.315018	1.300366
00:00:00.207	1.306960	1.357509	1.309158
00:00:00.207	1.300366	1.358974	1.318681
00:00:00.208	1.308425	1.346520	1.311355
00:00:00.208	1.294505	1.275458	1.284982
00:00:00.208	1.298901	1.236630	1.279853
00:00:00.210	1.302564	1.219048	1.293040
00:00:00.210	1.306227	1.226374	1.311355
00:00:00.211	1.309890	1.242491	1.304762
00:00:00.211	1.325275	1.270330	1.300366
00:00:00.211	1.332601	1.289377	1.311355
00:00:00.211	1.326007	1.314286	1.312821
00:00:00.211	1.346520	1.344322	1.310623
00:00:00.211	1.320147	1.350916	1.313553
00:00:00.214	1.271795	1.340659	1.310623
00:00:00.214	1.238095	1.320147	1.297436
00:00:00.214	1.234432	1.298168	1.286447
00:00:00.214	1.292308	1.317216	1.296703
00:00:00.214	1.347985	1.309158	1.282784
00:00:00.214	1.349451	1.312088	1.294505
00:00:00.214	1.321612	1.312821	1.294505
00:00:00.214	1.295238	1.327473	1.298168
00:00:00.220	1.268864	1.317949	1.290842
00:00:00.220	1.307692	1.300366	1.293040
00:00:00.220	1.345055	1.281319	1.298168
00:00:00.220	1.331136	1.295238	1.295971
00:00:00.220	1.315018	1.295238	1.309158
00:00:00.220	1.318681	1.299634	1.316484
00:00:00.252	1.320147	1.307692	1.309158
00:00:00.252	1.325275	1.312088	1.306960
00:00:00.252	1.320879	1.303297	1.308425
00:00:00.252	1.308425	1.297436	1.302564
00:00:00.252	1.309890	1.292308	1.295971
00:00:00.252	1.306227	1.307692	1.307692
00:00:00.252	1.300366	1.315018	1.306960
00:00:00.252	1.293773	1.310623	1.298901
00:00:00.252	1.306227	1.312088	1.300366
00:00:00.252	1.302564	1.311355	1.293773
00:00:00.252	1.294505	1.315018	1.303297
00:00:00.252	1.298901	1.320879	1.315018
00:00:00.253	1.290842	1.293040	1.300366
00:00:00.253	1.312088	1.297436	1.317216
00:00:00.254	1.334066	1.301099	1.313553
00:00:00.254	1.338462	1.299634	1.319414
00:00:00.254	1.322344	1.304029	1.310623
00:00:00.255	1.329670	1.304762	1.317216
00:00:00.255	1.326740	1.306227	1.311355
00:00:00.255	1.296703	1.303297	1.298168
00:00:00.256	1.300366	1.324542	1.290842
00:00:00.256	1.309158	1.356044	1.289377
00:00:00.256	1.308425	1.345788	1.295238
00:00:00.257	1.289377	1.317949	1.296703
00:00:00.257	1.293773	1.291575	1.292308
00:00:00.257	1.326007	1.301832	1.298901
00:00:00.258	1.319414	1.290842	1.298168
00:00:00.258	1.312088	1.301099	1.317949
00:00:00.259	1.306960	1.257143	1.314286
00:00:00.259	1.302564	1.234432	1.297436
00:00:00.259	1.308425	1.276190	1.306960
00:00:00.260	1.301832	1.279853	1.303297
00:00:00.260	1.303297	1.293040	1.315018
00:00:00.260	1.306227	1.281319	1.310623
00:00:00.261	1.285714	1.250549	1.294505
00:00:00.261	1.281319	1.273260	1.311355
00:00:00.261	1.285714	1.301832	1.304762
00:00:00.263	1.306960	1.320879	1.300366
00:00:00.263	1.345055	1.326007	1.298168
00:00:00.263	1.345055	1.326007	1.299634
00:00:00.263	1.339927	1.319414	1.295238
00:00:00.263	1.328205	1.334799	1.300366
00:00:00.264	1.310623	1.335531	1.298168
00:00:00.264	1.282051	1.331868	1.303297
00:00:00.264	1.295971	1.325275	1.294505
00:00:00.265	1.307692	1.318681	1.298901
00:00:00.265	1.307692	1.315018	1.305495
00:00:00.265	1.306227	1.312821	1.310623
00:00:00.266	1.295238	1.299634	1.323077
00:00:00.266	1.289377	1.298901	1.328205
00:00:00.298	1.290110	1.304029	1.312821
00:00:00.299	1.293773	1.307692	1.312088
00:00:00.299	1.321612	1.309158	1.312088
00:00:00.299	1.341392	1.300366	1.300366
00:00:00.300	1.353114	1.304762	1.290110
00:00:00.300	1.312088	1.284249	1.279853
00:00:00.300	1.334066	1.298168	1.294505
00:00:00.301	1.326007	1.298168	1.294505
00:00:00.301	1.311355	1.316484	1.301832
00:00:00.301	1.292308	1.313553	1.286447
00:00:00.302	1.284982	1.311355	1.270330
00:00:00.302	1.328938	1.321612	1.302564
00:00:00.303	1.315018	1.301099	1.313553
00:00:00.303	1.315751	1.295238	1.313553
00:00:00.303	1.264469	1.302564	1.315018
00:00:00.304	1.215385	1.297436	1.307692
00:00:00.304	1.287179	1.301832	1.325275
00:00:00.304	1.314286	1.297436	1.323810
00:00:00.305	1.325275	1.299634	1.323810
00:00:00.305	1.318681	1.295238	1.317216
00:00:00.305	1.306960	1.290110	1.309890
00:00:00.307	1.310623	1.300366	1.303297
00:00:00.307	1.308425	1.302564	1.276923
00:00:00.308	1.304029	1.307692	1.290110
00:00:00.308	1.304762	1.302564	1.279853
00:00:00.308	1.297436	1.302564	1.268132
00:00:00.308	1.308425	1.308425	1.271062
00:00:00.308	1.309158	1.310623	1.287179
00:00:00.308	1.334066	1.312088	1.316484
00:00:00.311	1.331868	1.310623	1.322344
00:00:00.311	1.315751	1.306227	1.295238
00:00:00.311	1.337729	1.306227	1.280586
00:00:00.311	1.361172	1.295971	1.320147
00:00:00.311	1.318681	1.300366	1.351648
00:00:00.311	1.282784	1.298901	1.326007
00:00:00.311	1.271795	1.298168	1.321612
00:00:00.311	1.295238	1.304762	1.311355
00:00:00.317	1.308425	1.311355	1.298168
00:00:00.317	1.301832	1.309158	1.295238
00:00:00.317	1.307692	1.315018	1.299634
00:00:00.317	1.314286	1.294505	1.289377
00:00:00.317	1.326740	1.309158	1.296703
00:00:00.317	1.323077	1.306960	1.289377
00:00:00.317	1.312088	1.310623	1.298168
00:00:00.317	1.311355	1.312088	1.300366
00:00:00.317	1.299634	1.307692	1.305495
00:00:00.317	1.312088	1.314286	1.317216
00:00:00.317	1.308425	1.301832	1.298168
00:00:00.317	1.305495	1.295971	1.312821
00:00:00.317	1.314286	1.302564	1.318681
00:00:00.349	1.287912	1.296703	1.304029
00:00:00.349	1.304029	1.308425	1.305495
00:00:00.349	1.305495	1.303297	1.300366
00:00:00.349	1.298901	1.309158	1.304762
00:00:00.349	1.311355	1.315751	1.305495
00:00:00.350	1.309890	1.304762	1.284249
00:00:00.350	1.309890	1.308425	1.299634
00:00:00.351	1.308425	1.311355	1.297436
00:00:00.351	1.300366	1.303297	1.303297
00:00:00.351	1.299634	1.302564	1.292308
00:00:00.352	1.316484	1.309158	1.299634
00:00:00.352	1.318681	1.310623	1.311355
00:00:00.352	1.316484	1.300366	1.304762
00:00:00.353	1.318681	1.300366	1.317216
00:00:00.353	1.321612	1.296703	1.310623
00:00:00.353	1.323077	1.288645	1.300366
00:00:00.354	1.274725	1.307692	1.316484
00:00:00.354	1.290110	1.300366	1.305495
00:00:00.354	1.314286	1.295238	1.305495
00:00:00.355	1.316484	1.297436	1.304762
00:00:00.355	1.300366	1.292308	1.290110
00:00:00.356	1.300366	1.304762	1.296703
00:00:00.356	1.295971	1.293040	1.283516
00:00:00.356	1.302564	1.307692	1.293040
00:00:00.357	1.315018	1.316484	1.300366
00:00:00.357	1.307692	1.309158	1.287912
00:00:00.357	1.320879	1.312088	1.302564
00:00:00.358	1.315018	1.312088	1.295971
00:00:00.358	1.314286	1.304762	1.304762
00:00:00.358	1.319414	1.305495	1.309158
00:00:00.359	1.305495	1.281319	1.304029
00:00:00.359	1.318681	1.301099	1.310623
00:00:00.359	1.315751	1.301832	1.318681
00:00:00.360	1.312088	1.300366	1.319414
00:00:00.360	1.318681	1.300366	1.314286
00:00:00.361	1.306227	1.290842	1.304762
00:00:00.361	1.316484	1.296703	1.304029
00:00:00.361	1.315018	1.306960	1.309158
00:00:00.362	1.304029	1.306227	1.300366
00:00:00.362	1.296703	1.309158	1.300366
00:00:00.362	1.298168	1.312088	1.306227
00:00:00.363	1.314286	1.319414	1.300366
00:00:00.363	1.311355	1.320147	1.300366
00:00:00.363	1.320879	1.317949	1.300366
00:00:00.364	1.323810	1.312088	1.292308
00:00:00.364	1.323810	1.304029	1.299634
00:00:00.364	1.335531	1.306960	1.295971
00:00:00.365	1.336264	1.311355	1.304762
00:00:00.365	1.313553	1.312088	1.310623
00:00:00.366	1.295238	1.303297	1.304762
00:00:00.398	1.301099	1.311355	1.342125
00:00:00.399	1.269597	1.302564	1.323077
00:00:00.399	1.301099	1.301099	1.304762
00:00:00.399	1.309890	1.293040	1.309158
00:00:00.399	1.293773	1.289377	1.295238
00:00:00.400	1.306227	1.297436	1.299634
00:00:00.400	1.312088	1.304029	1.298168
00:00:00.400	1.315751	1.300366	1.290842
00:00:00.403	1.328205	1.316484	1.292308
00:00:00.403	1.295971	1.303297	1.282784
00:00:00.403	1.308425	1.311355	1.296703
00:00:00.403	1.323077	1.310623	1.298168
00:00:00.403	1.317216	1.305495	1.290110
00:00:00.403	1.312088	1.312088	1.314286
00:00:00.404	1.313553	1.307692	1.306227
00:00:00.404	1.307692	1.306227	1.313553
00:00:00.404	1.304029	1.296703	1.304029
00:00:00.404	1.306960	1.292308	1.299634
00:00:00.404	1.315751	1.297436	1.309890
00:00:00.406	1.263004	1.297436	1.303297
00:00:00.406	1.297436	1.300366	1.306227
00:00:00.406	1.361172	1.307692	1.312088
00:00:00.406	1.334066	1.305495	1.300366
00:00:00.406	1.290110	1.304762	1.302564
00:00:00.406	1.288645	1.303297	1.298901
00:00:00.407	1.296703	1.302564	1.290842
00:00:00.407	1.285714	1.306227	1.300366
00:00:00.407	1.292308	1.312088	1.297436
00:00:00.413	1.287912	1.306960	1.298901
00:00:00.413	1.295971	1.312821	1.298901
00:00:00.413	1.312088	1.313553	1.298168
00:00:00.413	1.363370	1.314286	1.317949
00:00:00.413	1.342857	1.309890	1.318681
00:00:00.413	1.312088	1.301832	1.312821
00:00:00.413	1.319414	1.296703	1.309158
00:00:00.413	1.363370	1.301832	1.311355
00:00:00.413	1.334066	1.299634	1.314286
00:00:00.413	1.296703	1.297436	1.305495
00:00:00.413	1.294505	1.306960	1.304762
00:00:00.413	1.298168	1.303297	1.300366
00:00:00.413	1.312088	1.312088	1.297436
00:00:00.413	1.341392	1.315018	1.295238
00:00:00.413	1.331136	1.317949	1.298901
00:00:00.413	1.303297	1.312088	1.291575
00:00:00.414	1.309158	1.317949	1.304762
00:00:00.414	1.308425	1.317216	1.306960
00:00:00.414	1.302564	1.306227	1.306227
00:00:00.415	1.292308	1.303297	1.304029
00:00:00.415	1.298901	1.308425	1.310623
00:00:00.415	1.297436	1.304762	1.306227
00:00:00.447	1.321612	1.301832	1.316484
00:00:00.448	1.307692	1.290842	1.299634
00:00:00.448	1.305495	1.306227	1.312821
00:00:00.449	1.304762	1.301832	1.308425
00:00:00.449	1.309890	1.301832	1.306960
00:00:00.449	1.311355	1.305495	1.309890
00:00:00.450	1.312821	1.298901	1.291575
00:00:00.450	1.303297	1.306960	1.297436
00:00:00.451	1.312088	1.315751	1.304762
00:00:00.451	1.309890	1.314286	1.300366
00:00:00.451	1.298168	1.312088	1.300366
00:00:00.451	1.301832	1.317216	1.303297
00:00:00.452	1.312088	1.306227	1.298901
00:00:00.452	1.321612	1.304762	1.306227
00:00:00.453	1.292308	1.291575	1.298901
00:00:00.453	1.315018	1.309158	1.318681
00:00:00.453	1.295971	1.299634	1.306227
00:00:00.454	1.310623	1.305495	1.308425
00:00:00.454	1.315018	1.301099	1.309890
00:00:00.454	1.312088	1.299634	1.300366
00:00:00.455	1.295971	1.287179	1.297436
00:00:00.455	1.301832	1.297436	1.300366
00:00:00.455	1.310623	1.301832	1.298168
00:00:00.456	1.317216	1.303297	1.299634
00:00:00.456	1.299634	1.302564	1.285714
00:00:00.456	1.304762	1.309158	1.293773
00:00:00.457	1.327473	1.310623	1.300366
00:00:00.457	1.305495	1.312088	1.300366
00:00:00.458	1.296703	1.295238	1.290110
00:00:00.458	1.330403	1.301099	1.301832
00:00:00.458	1.328938	1.304762	1.306960
00:00:00.459	1.327473	1.306960	1.312088
00:00:00.459	1.313553	1.302564	1.313553
00:00:00.459	1.302564	1.304762	1.313553
00:00:00.460	1.298901	1.305495	1.313553
00:00:00.460	1.294505	1.301832	1.309158
00:00:00.460	1.286447	1.309158	1.306227
00:00:00.461	1.292308	1.306227	1.302564
00:00:00.461	1.301832	1.304029	1.299634
00:00:00.461	1.312088	1.300366	1.300366
00:00:00.462	1.312821	1.310623	1.299634
00:00:00.462	1.310623	1.312088	1.296703
00:00:00.463	1.320147	1.309158	1.296703
00:00:00.463	1.315018	1.308425	1.294505
00:00:00.463	1.316484	1.315751	1.305495
00:00:00.464	1.309158	1.306960	1.294505
00:00:00.464	1.310623	1.303297	1.300366
00:00:00.464	1.313553	1.298901	1.306960
00:00:00.466	1.302564	1.294505	1.304029
00:00:00.466	1.308425	1.290842	1.302564
00:00:00.498	1.315751	1.292308	1.295238
00:00:00.498	1.304762	1.287912	1.294505
00:00:00.498	1.312821	1.297436	1.309158
00:00:00.498	1.309890	1.301099	1.306960
00:00:00.500	1.306227	1.302564	1.308425
00:00:00.500	1.294505	1.294505	1.300366
00:00:00.500	1.312088	1.306960	1.301832
00:00:00.500	1.287912	1.312821	1.302564
00:00:00.500	1.301832	1.320879	1.296703
00:00:00.500	1.311355	1.329670	1.285714
00:00:00.503	1.353846	1.352381	1.303297
00:00:00.503	1.364103	1.334799	1.300366
00:00:00.503	1.344322	1.321612	1.295238
00:00:00.503	1.293773	1.310623	1.304762
00:00:00.503	1.265934	1.293040	1.306227
00:00:00.503	1.275458	1.300366	1.309158
00:00:00.503	1.271062	1.292308	1.305495
00:00:00.503	1.298168	1.283516	1.301832
00:00:00.509	1.317949	1.289377	1.305495
00:00:00.509	1.318681	1.309158	1.309158
00:00:00.509	1.312088	1.279121	1.300366
00:00:00.509	1.297436	1.252747	1.292308
00:00:00.509	1.306960	1.268132	1.295971
00:00:00.509	1.311355	1.275458	1.293040
00:00:00.509	1.315018	1.283516	1.294505
00:00:00.509	1.309158	1.292308	1.296703
00:00:00.509	1.296703	1.286447	1.286447
00:00:00.509	1.295238	1.283516	1.279853
00:00:00.509	1.306960	1.302564	1.298901
00:00:00.509	1.318681	1.326007	1.311355
00:00:00.509	1.312088	1.330403	1.306960
00:00:00.509	1.305495	1.315018	1.305495
00:00:00.509	1.298168	1.312821	1.300366
00:00:00.509	1.315018	1.319414	1.317949
00:00:00.509	1.314286	1.313553	1.310623
00:00:00.510	1.310623	1.315018	1.312821
00:00:00.510	1.309158	1.311355	1.312088
00:00:00.510	1.309890	1.307692	1.306960
00:00:00.511	1.317216	1.304029	1.300366
00:00:00.511	1.320879	1.312821	1.304762
00:00:00.512	1.315751	1.311355	1.296703
00:00:00.512	1.302564	1.309890	1.293773
00:00:00.512	1.315018	1.315018	1.293040
00:00:00.513	1.293040	1.306227	1.293773
00:00:00.513	1.329670	1.317949	1.304029
00:00:00.513	1.313553	1.312821	1.298901
00:00:00.514	1.298901	1.303297	1.297436
00:00:00.514	1.308425	1.305495	1.306227
00:00:00.514	1.300366	1.294505	1.295238
00:00:00.515	1.309158	1.309158	1.319414
00:00:00.547	1.305495	1.296703	1.304762
00:00:00.547	1.307692	1.303297	1.310623
00:00:00.548	1.315018	1.308425	1.309890
00:00:00.548	1.306227	1.298168	1.298168
00:00:00.548	1.323810	1.304762	1.307692
00:00:00.549	1.328205	1.300366	1.302564
00:00:00.549	1.323810	1.295971	1.298168
00:00:00.549	1.323810	1.310623	1.298901
00:00:00.550	1.302564	1.293773	1.280586
00:00:00.550	1.303297	1.314286	1.301832
00:00:00.551	1.283516	1.310623	1.299634
00:00:00.551	1.282051	1.310623	1.300366
00:00:00.551	1.284249	1.313553	1.300366
00:00:00.552	1.285714	1.304762	1.299634
00:00:00.552	1.298168	1.310623	1.307692
00:00:00.552	1.320879	1.312088	1.316484
00:00:00.553	1.321612	1.306227	1.310623
00:00:00.553	1.315018	1.293040	1.306960
00:00:00.553	1.325275	1.304029	1.311355
00:00:00.554	1.316484	1.303297	1.311355
00:00:00.554	1.312821	1.290842	1.296703
00:00:00.554	1.312088	1.300366	1.308425
00:00:00.556	1.309890	1.289377	1.298168
00:00:00.556	1.313553	1.294505	1.302564
00:00:00.556	1.306227	1.296703	1.287179
00:00:00.556	1.312088	1.323077	1.301832
00:00:00.556	1.307692	1.321612	1.304029
00:00:00.557	1.308425	1.312821	1.296703
00:00:00.557	1.308425	1.310623	1.295238
00:00:00.557	1.312088	1.312088	1.302564
00:00:00.558	1.312088	1.300366	1.293773
00:00:00.558	1.321612	1.304029	1.315018
00:00:00.558	1.314286	1.293040	1.308425
00:00:00.559	1.315018	1.292308	1.310623
00:00:00.559	1.314286	1.284982	1.315018
00:00:00.559	1.306227	1.285714	1.298168
00:00:00.560	1.312821	1.302564	1.312088
00:00:00.560	1.309158	1.308425	1.314286
00:00:00.561	1.306960	1.313553	1.300366
00:00:00.561	1.299634	1.315751	1.302564
00:00:00.561	1.289377	1.291575	1.284249
00:00:00.563	1.300366	1.312821	1.298901
00:00:00.563	1.309890	1.307692	1.295971
00:00:00.563	1.313553	1.309890	1.298168
00:00:00.563	1.330403	1.320147	1.304762
00:00:00.564	1.323810	1.312821	1.302564
00:00:00.564	1.334799	1.312088	1.297436
00:00:00.564	1.317216	1.302564	1.297436
00:00:00.564	1.290110	1.309158	1.308425
00:00:00.566	1.295971	1.307692	1.312821
00:00:00.597	1.302564	1.297436	1.306960
00:00:00.597	1.309158	1.308425	1.320879
00:00:00.597	1.309158	1.296703	1.315018
00:00:00.598	1.309158	1.287912	1.298168
00:00:00.603	1.311355	1.308425	1.306960
00:00:00.603	1.303297	1.289377	1.297436
00:00:00.603	1.312088	1.304029	1.300366
00:00:00.603	1.315018	1.310623	1.300366
00:00:00.603	1.309158	1.309158	1.294505
00:00:00.603	1.312088	1.306227	1.298168
00:00:00.603	1.295238	1.299634	1.287912
00:00:00.603	1.310623	1.309890	1.298901
00:00:00.603	1.308425	1.300366	1.287179
00:00:00.603	1.316484	1.310623	1.307692
00:00:00.603	1.315751	1.312821	1.304762
00:00:00.603	1.305495	1.309158	1.315018
00:00:00.603	1.315018	1.309158	1.312821
00:00:00.603	1.302564	1.293773	1.311355
00:00:00.603	1.312821	1.304762	1.312088
00:00:00.604	1.306227	1.290842	1.303297
00:00:00.604	1.320879	1.304762	1.311355
00:00:00.604	1.310623	1.302564	1.302564
00:00:00.605	1.309158	1.304029	1.303297
00:00:00.605	1.311355	1.316484	1.307692
00:00:00.605	1.308425	1.317216	1.296703
00:00:00.606	1.298901	1.317216	1.304762
00:00:00.606	1.295971	1.304762	1.298168
00:00:00.606	1.293773	1.296703	1.291575
00:00:00.607	1.319414	1.303297	1.303297
00:00:00.608	1.313553	1.294505	1.290842
00:00:00.608	1.312821	1.305495	1.309158
00:00:00.608	1.310623	1.309158	1.300366
00:00:00.608	1.300366	1.308425	1.312088
00:00:00.609	1.317216	1.305495	1.314286
00:00:00.609	1.315751	1.308425	1.320147
00:00:00.609	1.312088	1.296703	1.298168
00:00:00.610	1.315018	1.304029	1.311355
00:00:00.610	1.314286	1.300366	1.306960
00:00:00.610	1.305495	1.296703	1.302564
00:00:00.611	1.303297	1.289377	1.284249
00:00:00.611	1.309158	1.298901	1.303297
00:00:00.611	1.302564	1.293773	1.287912
00:00:00.612	1.306960	1.315751	1.300366
00:00:00.612	1.309158	1.317216	1.291575
00:00:00.612	1.306227	1.318681	1.304029
00:00:00.613	1.304029	1.304029	1.286447
00:00:00.613	1.310623	1.330403	1.302564
00:00:00.614	1.318681	1.316484	1.312088
00:00:00.614	1.317949	1.295238	1.311355
00:00:00.614	1.311355	1.290110	1.306227
00:00:00.646	1.300366	1.276923	1.308425
00:00:00.647	1.316484	1.281319	1.316484
00:00:00.647	1.299634	1.276190	1.308425
00:00:00.648	1.317949	1.286447	1.314286
00:00:00.648	1.306960	1.276923	1.308425
00:00:00.648	1.307692	1.295238	1.302564
00:00:00.649	1.295971	1.294505	1.296703
00:00:00.649	1.311355	1.326007	1.300366
00:00:00.649	1.312088	1.324542	1.293773
00:00:00.650	1.308425	1.323810	1.296703
00:00:00.650	1.307692	1.327473	1.294505
00:00:00.650	1.309158	1.325275	1.297436
00:00:00.651	1.296703	1.316484	1.292308
00:00:00.651	1.314286	1.329670	1.311355
00:00:00.651	1.306227	1.316484	1.300366
00:00:00.652	1.318681	1.327473	1.313553
00:00:00.652	1.298901	1.306227	1.298168
00:00:00.653	1.309158	1.309890	1.312088
00:00:00.653	1.309158	1.304762	1.304762
00:00:00.653	1.326007	1.311355	1.309890
00:00:00.654	1.312821	1.287912	1.308425
00:00:00.654	1.304762	1.267399	1.298901
00:00:00.654	1.309890	1.264469	1.300366
00:00:00.655	1.301099	1.272527	1.294505
00:00:00.655	1.305495	1.301099	1.297436
00:00:00.655	1.308425	1.317216	1.293773
00:00:00.656	1.300366	1.318681	1.293773
00:00:00.656	1.305495	1.309890	1.294505
00:00:00.656	1.306227	1.304762	1.294505
00:00:00.658	1.312088	1.301099	1.301832
00:00:00.658	1.314286	1.302564	1.304762
00:00:00.659	1.315018	1.303297	1.306960
00:00:00.659	1.312821	1.300366	1.309158
00:00:00.659	1.314286	1.304029	1.312821
00:00:00.659	1.306960	1.299634	1.295971
00:00:00.659	1.318681	1.309158	1.320147
00:00:00.662	1.314286	1.302564	1.313553
00:00:00.662	1.306960	1.301832	1.304029
00:00:00.662	1.310623	1.304029	1.306960
00:00:00.662	1.300366	1.297436	1.296703
00:00:00.662	1.310623	1.293040	1.304029
00:00:00.662	1.309890	1.297436	1.299634
00:00:00.662	1.312821	1.306227	1.303297
00:00:00.662	1.323810	1.312088	1.298168
00:00:00.662	1.315751	1.320147	1.295238
00:00:00.668	1.306227	1.331868	1.306227
00:00:00.668	1.298901	1.324542	1.300366
00:00:00.668	1.311355	1.319414	1.306227
00:00:00.668	1.314286	1.319414	1.309158
00:00:00.668	1.298168	1.293773	1.299634
00:00:00.701	1.312088	1.291575	1.308425
00:00:00.701	1.308425	1.283516	1.304762
00:00:00.701	1.306227	1.290110	1.308425
00:00:00.701	1.325275	1.287912	1.312088
00:00:00.701	1.317949	1.306227	1.314286
00:00:00.701	1.308425	1.312088	1.300366
00:00:00.701	1.295971	1.310623	1.302564
00:00:00.701	1.302564	1.315751	1.300366
00:00:00.701	1.300366	1.307692	1.288645
00:00:00.701	1.292308	1.315751	1.293773
00:00:00.701	1.284249	1.315018	1.290842
00:00:00.701	1.307692	1.318681	1.300366
00:00:00.701	1.319414	1.311355	1.299634
00:00:00.701	1.323810	1.299634	1.302564
00:00:00.701	1.340659	1.306227	1.305495
00:00:00.702	1.315751	1.295238	1.311355
00:00:00.702	1.317216	1.295971	1.320147
00:00:00.702	1.306960	1.287912	1.311355
00:00:00.703	1.307692	1.306960	1.314286
00:00:00.703	1.309158	1.302564	1.310623
00:00:00.703	1.300366	1.293773	1.304762
00:00:00.704	1.318681	1.305495	1.308425
00:00:00.704	1.304029	1.308425	1.298901
00:00:00.704	1.309158	1.320879	1.304762
00:00:00.705	1.312821	1.312088	1.298168
00:00:00.705	1.295971	1.290110	1.289377
00:00:00.705	1.298901	1.287179	1.291575
00:00:00.706	1.293773	1.290110	1.290842
00:00:00.706	1.303297	1.295971	1.287179
00:00:00.707	1.315751	1.318681	1.300366
00:00:00.707	1.327473	1.328938	1.309890
00:00:00.707	1.322344	1.307692	1.311355
00:00:00.708	1.314286	1.291575	1.306227
00:00:00.708	1.314286	1.284982	1.307692
00:00:00.708	1.300366	1.276923	1.300366
00:00:00.709	1.300366	1.290842	1.312821
00:00:00.709	1.307692	1.297436	1.315018
00:00:00.709	1.303297	1.298168	1.308425
00:00:00.710	1.311355	1.307692	1.302564
00:00:00.710	1.300366	1.307692	1.297436
00:00:00.711	1.315018	1.312821	1.300366
00:00:00.711	1.301099	1.305495	1.290842
00:00:00.712	1.308425	1.319414	1.294505
00:00:00.712	1.310623	1.336264	1.297436
00:00:00.712	1.309158	1.338462	1.300366
00:00:00.712	1.312088	1.326007	1.299634
00:00:00.713	1.309158	1.315018	1.303297
00:00:00.713	1.315018	1.310623	1.305495
00:00:00.713	1.304029	1.287179	1.299634
00:00:00.714	1.312088	1.300366	1.312821
00:00:00.746	1.312088	1.295238	1.309890
00:00:00.746	1.316484	1.299634	1.309158
00:00:00.747	1.311355	1.297436	1.308425
00:00:00.747	1.309890	1.290842	1.302564
00:00:00.747	1.315751	1.291575	1.303297
00:00:00.748	1.295238	1.280586	1.291575
00:00:00.748	1.309158	1.300366	1.303297
00:00:00.748	1.301832	1.304029	1.297436
00:00:00.749	1.309158	1.313553	1.297436
00:00:00.749	1.312088	1.314286	1.296703
00:00:00.750	1.304762	1.304762	1.295971
00:00:00.750	1.302564	1.306960	1.294505
00:00:00.750	1.312088	1.312088	1.297436
00:00:00.751	1.317949	1.307692	1.304029
00:00:00.751	1.317216	1.298901	1.308425
00:00:00.751	1.314286	1.293040	1.305495
00:00:00.752	1.309890	1.295971	1.311355
00:00:00.752	1.311355	1.303297	1.311355
00:00:00.752	1.312821	1.315751	1.310623
00:00:00.754	1.316484	1.318681	1.304029
00:00:00.754	1.304762	1.308425	1.298168
00:00:00.754	1.309890	1.309158	1.306960
00:00:00.754	1.293040	1.299634	1.295971
00:00:00.754	1.302564	1.309158	1.297436
00:00:00.756	1.303297	1.298168	1.284982
00:00:00.756	1.306227	1.290842	1.299634
00:00:00.756	1.308425	1.277656	1.297436
00:00:00.756	1.295238	1.280586	1.290110
00:00:00.756	1.312088	1.305495	1.298168
00:00:00.756	1.309890	1.308425	1.291575
00:00:00.759	1.315018	1.323077	1.301832
00:00:00.759	1.306227	1.312088	1.300366
00:00:00.759	1.298168	1.300366	1.309890
00:00:00.759	1.318681	1.315018	1.310623
00:00:00.759	1.300366	1.309158	1.309158
00:00:00.759	1.312088	1.317216	1.316484
00:00:00.759	1.310623	1.295971	1.309890
00:00:00.759	1.308425	1.288645	1.312821
00:00:00.765	1.312088	1.293773	1.307692
00:00:00.765	1.310623	1.308425	1.304029
00:00:00.765	1.323077	1.333333	1.305495
00:00:00.765	1.319414	1.332601	1.309158
00:00:00.765	1.320879	1.324542	1.300366
00:00:00.765	1.309890	1.310623	1.295971
00:00:00.765	1.303297	1.298901	1.294505
00:00:00.765	1.301099	1.295971	1.304762
00:00:00.765	1.311355	1.305495	1.300366
00:00:00.765	1.306227	1.312821	1.304029
00:00:00.765	1.301832	1.306960	1.304762
00:00:00.765	1.298901	1.288645	1.295238
