timestamp	ch1	ch2	ch3
00:00:00.000	1.308425	1.317949	1.295971
00:00:00.000	1.307692	1.298901	1.306227
00:00:00.000	1.316484	1.282784	1.307692
00:00:00.003	1.314286	1.294505	1.312088
00:00:00.003	1.313553	1.299634	1.308425
00:00:00.003	1.317216	1.305495	1.309890
00:00:00.003	1.303297	1.298168	1.298901
00:00:00.003	1.311355	1.306227	1.309158
00:00:00.003	1.312821	1.311355	1.306960
00:00:00.003	1.299634	1.312088	1.298168
00:00:00.003	1.315018	1.334799	1.308425
00:00:00.003	1.307692	1.318681	1.300366
00:00:00.004	1.298168	1.309158	1.300366
00:00:00.005	1.314286	1.309890	1.303297
00:00:00.005	1.313553	1.309158	1.295971
00:00:00.006	1.304762	1.315018	1.302564
00:00:00.006	1.316484	1.315018	1.302564
00:00:00.006	1.314286	1.293040	1.290110
00:00:00.006	1.312088	1.280586	1.298901
00:00:00.006	1.316484	1.290842	1.308425
00:00:00.007	1.301832	1.281319	1.292308
00:00:00.007	1.310623	1.306960	1.312821
00:00:00.007	1.306960	1.298168	1.309158
00:00:00.008	1.307692	1.286447	1.304029
00:00:00.008	1.309158	1.302564	1.309890
00:00:00.008	1.312088	1.300366	1.308425
00:00:00.009	1.295971	1.301832	1.294505
00:00:00.009	1.315751	1.312821	1.304762
00:00:00.009	1.315751	1.310623	1.304029
00:00:00.010	1.304029	1.312821	1.302564
00:00:00.010	1.312088	1.323077	1.302564
00:00:00.011	1.309158	1.317949	1.287912
00:00:00.011	1.311355	1.324542	1.306960
00:00:00.011	1.311355	1.323810	1.306227
00:00:00.012	1.302564	1.306227	1.292308
00:00:00.012	1.306227	1.314286	1.307692
00:00:00.012	1.306960	1.304762	1.306227
00:00:00.013	1.300366	1.325275	1.312821
00:00:00.013	1.309890	1.302564	1.311355
00:00:00.013	1.308425	1.275458	1.298168
00:00:00.014	1.315018	1.270330	1.309158
00:00:00.014	1.310623	1.266667	1.287179
00:00:00.014	1.313553	1.285714	1.302564
00:00:00.047	1.313553	1.294505	1.293773
00:00:00.047	1.309890	1.296703	1.300366
00:00:00.047	1.312088	1.282784	1.297436
00:00:00.048	1.303297	1.291575	1.295238
00:00:00.048	1.313553	1.321612	1.305495
00:00:00.048	1.309158	1.326007	1.298168
00:00:00.049	1.318681	1.311355	1.300366
00:00:00.049	1.317216	1.306960	1.304762
00:00:00.050	1.299634	1.299634	1.298168
00:00:00.050	1.314286	1.308425	1.307692
00:00:00.050	1.308425	1.304762	1.306227
00:00:00.051	1.302564	1.301832	1.304762
00:00:00.051	1.296703	1.295238	1.300366
00:00:00.051	1.309158	1.298168	1.307692
00:00:00.052	1.294505	1.301832	1.304762
00:00:00.052	1.298901	1.300366	1.298168
00:00:00.052	1.305495	1.309158	1.303297
00:00:00.053	1.308425	1.311355	1.302564
00:00:00.053	1.312088	1.312821	1.300366
00:00:00.053	1.312821	1.301832	1.297436
00:00:00.054	1.308425	1.303297	1.295971
00:00:00.054	1.314286	1.312821	1.298168
00:00:00.055	1.311355	1.315751	1.304762
00:00:00.055	1.308425	1.309890	1.306227
00:00:00.055	1.303297	1.298901	1.305495
00:00:00.056	1.312088	1.301099	1.300366
00:00:00.056	1.314286	1.306227	1.312088
00:00:00.056	1.297436	1.295971	1.305495
00:00:00.057	1.303297	1.306227	1.308425
00:00:00.058	1.305495	1.308425	1.309158
00:00:00.058	1.312821	1.314286	1.306960
00:00:00.058	1.298901	1.301832	1.304029
00:00:00.058	1.296703	1.296703	1.299634
00:00:00.058	1.310623	1.308425	1.290110
00:00:00.059	1.313553	1.321612	1.300366
00:00:00.059	1.305495	1.322344	1.286447
00:00:00.060	1.315751	1.312821	1.290110
00:00:00.060	1.317216	1.310623	1.299634
00:00:00.060	1.319414	1.312088	1.303297
00:00:00.061	1.308425	1.302564	1.294505
00:00:00.061	1.307692	1.299634	1.298901
00:00:00.061	1.300366	1.293773	1.298901
00:00:00.062	1.303297	1.283516	1.303297
00:00:00.062	1.309158	1.287179	1.303297
00:00:00.062	1.309890	1.272527	1.298901
00:00:00.064	1.317949	1.290110	1.306960
00:00:00.064	1.310623	1.304762	1.311355
00:00:00.064	1.310623	1.298901	1.304029
00:00:00.064	1.302564	1.291575	1.304029
00:00:00.065	1.315018	1.309158	1.311355
00:00:00.098	1.298168	1.318681	1.302564
00:00:00.098	1.310623	1.316484	1.312088
00:00:00.098	1.311355	1.298168	1.295971
00:00:00.098	1.311355	1.300366	1.298901
00:00:00.098	1.315018	1.298901	1.285714
00:00:00.098	1.305495	1.292308	1.288645
00:00:00.099	1.310623	1.309158	1.303297
00:00:00.099	1.309158	1.300366	1.291575
00:00:00.099	1.308425	1.299634	1.303297
00:00:00.102	1.306227	1.308425	1.300366
00:00:00.102	1.312088	1.330403	1.312821
00:00:00.102	1.301832	1.316484	1.304762
00:00:00.102	1.306960	1.323077	1.310623
00:00:00.102	1.304762	1.321612	1.306227
00:00:00.102	1.309158	1.311355	1.306227
00:00:00.102	1.312088	1.305495	1.303297
00:00:00.102	1.313553	1.305495	1.304762
00:00:00.102	1.306960	1.308425	1.298901
00:00:00.103	1.308425	1.298168	1.303297
00:00:00.103	1.307692	1.284982	1.299634
00:00:00.104	1.304762	1.298901	1.303297
00:00:00.104	1.297436	1.298168	1.304029
00:00:00.104	1.306227	1.298901	1.304029
00:00:00.105	1.308425	1.300366	1.295971
00:00:00.105	1.306227	1.293773	1.289377
00:00:00.105	1.313553	1.287912	1.307692
00:00:00.106	1.309158	1.292308	1.303297
00:00:00.106	1.308425	1.286447	1.300366
00:00:00.106	1.309890	1.281319	1.312821
00:00:00.107	1.308425	1.306227	1.304762
00:00:00.107	1.309158	1.323077	1.304762
00:00:00.107	1.309158	1.343590	1.304029
00:00:00.108	1.315018	1.387546	1.307692
00:00:00.108	1.301832	1.355311	1.304029
00:00:00.109	1.312821	1.314286	1.294505
00:00:00.109	1.309890	1.265201	1.299634
00:00:00.110	1.312088	1.245421	1.287912
00:00:00.110	1.312088	1.260806	1.297436
00:00:00.110	1.317949	1.279853	1.306227
00:00:00.110	1.305495	1.284249	1.289377
00:00:00.111	1.317949	1.304029	1.304762
00:00:00.111	1.307692	1.301099	1.293773
00:00:00.111	1.309890	1.304029	1.302564
00:00:00.112	1.303297	1.298901	1.303297
00:00:00.112	1.299634	1.303297	1.303297
00:00:00.112	1.298901	1.302564	1.300366
00:00:00.113	1.308425	1.312088	1.315018
00:00:00.113	1.305495	1.308425	1.309158
00:00:00.114	1.306960	1.294505	1.299634
00:00:00.114	1.315751	1.300366	1.303297
00:00:00.146	1.305495	1.296703	1.300366
00:00:00.146	1.305495	1.310623	1.302564
00:00:00.147	1.310623	1.322344	1.302564
00:00:00.147	1.309158	1.323077	1.300366
00:00:00.147	1.305495	1.320879	1.304029
00:00:00.148	1.315018	1.315751	1.300366
00:00:00.148	1.312088	1.311355	1.289377
00:00:00.149	1.317216	1.311355	1.299634
00:00:00.149	1.307692	1.309890	1.299634
00:00:00.149	1.313553	1.310623	1.302564
00:00:00.150	1.312088	1.312821	1.312821
00:00:00.150	1.324542	1.309890	1.312088
00:00:00.150	1.313553	1.309890	1.312821
00:00:00.151	1.304762	1.308425	1.309890
00:00:00.151	1.304762	1.312088	1.309158
00:00:00.151	1.290842	1.317216	1.300366
00:00:00.152	1.300366	1.325275	1.310623
00:00:00.152	1.301832	1.291575	1.304762
00:00:00.153	1.294505	1.265934	1.293773
00:00:00.153	1.312088	1.285714	1.290842
00:00:00.153	1.320147	1.313553	1.300366
00:00:00.154	1.299634	1.320879	1.295971
00:00:00.154	1.311355	1.327473	1.308425
00:00:00.154	1.312821	1.311355	1.300366
00:00:00.155	1.317949	1.300366	1.300366
00:00:00.155	1.315751	1.303297	1.304762
00:00:00.155	1.306227	1.287912	1.293040
00:00:00.156	1.304029	1.275458	1.293773
00:00:00.156	1.311355	1.282784	1.313553
00:00:00.156	1.300366	1.282784	1.309158
00:00:00.157	1.295238	1.284249	1.308425
00:00:00.157	1.301099	1.295971	1.309158
00:00:00.158	1.311355	1.308425	1.305495
00:00:00.158	1.308425	1.296703	1.289377
00:00:00.158	1.304029	1.294505	1.286447
00:00:00.160	1.312088	1.309158	1.295238
00:00:00.160	1.301832	1.308425	1.298168
00:00:00.160	1.313553	1.316484	1.299634
00:00:00.160	1.307692	1.308425	1.298168
00:00:00.160	1.299634	1.295971	1.295238
00:00:00.160	1.311355	1.311355	1.300366
00:00:00.162	1.317949	1.311355	1.302564
00:00:00.162	1.313553	1.305495	1.292308
00:00:00.162	1.319414	1.319414	1.310623
00:00:00.162	1.312088	1.317216	1.306227
00:00:00.162	1.306227	1.317949	1.309158
00:00:00.163	1.305495	1.309890	1.317949
00:00:00.163	1.308425	1.304762	1.306960
00:00:00.163	1.293040	1.294505	1.306960
00:00:00.166	1.295971	1.298168	1.306960
00:00:00.198	1.298168	1.292308	1.307692
00:00:00.198	1.300366	1.287912	1.291575
00:00:00.198	1.310623	1.311355	1.301832
00:00:00.198	1.317949	1.315018	1.309158
00:00:00.198	1.313553	1.300366	1.295238
00:00:00.198	1.314286	1.309890	1.299634
00:00:00.198	1.319414	1.313553	1.304762
00:00:00.198	1.309158	1.312821	1.305495
00:00:00.199	1.300366	1.315018	1.308425
00:00:00.199	1.310623	1.316484	1.306227
00:00:00.199	1.306227	1.315751	1.306960
00:00:00.200	1.301832	1.305495	1.304029
00:00:00.200	1.287912	1.280586	1.298901
00:00:00.200	1.297436	1.278388	1.309158
00:00:00.201	1.315018	1.274725	1.312088
00:00:00.201	1.320879	1.283516	1.309158
00:00:00.201	1.319414	1.294505	1.306227
00:00:00.202	1.314286	1.299634	1.297436
00:00:00.202	1.306227	1.305495	1.290842
00:00:00.203	1.311355	1.311355	1.300366
00:00:00.203	1.297436	1.298168	1.295238
00:00:00.203	1.317949	1.307692	1.297436
00:00:00.204	1.317949	1.315751	1.300366
00:00:00.204	1.312088	1.315018	1.300366
00:00:00.204	1.315018	1.317949	1.300366
00:00:00.205	1.313553	1.309890	1.292308
00:00:00.205	1.303297	1.312821	1.310623
00:00:00.205	1.301832	1.310623	1.306960
00:00:00.206	1.295238	1.320879	1.302564
00:00:00.206	1.316484	1.345788	1.310623
00:00:00.207	1.312088	1.330403	1.307692
00:00:00.207	1.295971	1.305495	1.301832
00:00:00.207	1.307692	1.298168	1.307692
00:00:00.208	1.310623	1.293040	1.304762
00:00:00.208	1.311355	1.290110	1.306227
00:00:00.208	1.317949	1.286447	1.308425
00:00:00.209	1.314286	1.278388	1.300366
00:00:00.209	1.323810	1.284249	1.297436
00:00:00.209	1.320147	1.334799	1.300366
00:00:00.210	1.321612	1.342125	1.297436
00:00:00.210	1.312088	1.331136	1.302564
00:00:00.210	1.307692	1.322344	1.303297
00:00:00.211	1.293040	1.310623	1.304029
00:00:00.211	1.299634	1.293040	1.304762
00:00:00.212	1.300366	1.265201	1.295238
00:00:00.212	1.317949	1.277656	1.308425
00:00:00.212	1.315018	1.264469	1.308425
00:00:00.213	1.310623	1.264469	1.299634
00:00:00.213	1.311355	1.280586	1.310623
00:00:00.213	1.304762	1.302564	1.313553
00:00:00.246	1.299634	1.308425	1.302564
00:00:00.246	1.312088	1.321612	1.285714
00:00:00.246	1.324542	1.329670	1.298901
00:00:00.247	1.308425	1.326740	1.288645
00:00:00.247	1.305495	1.312821	1.300366
00:00:00.247	1.308425	1.306960	1.334799
00:00:00.248	1.304029	1.320147	1.323810
00:00:00.248	1.312088	1.356777	1.312821
00:00:00.248	1.309890	1.419780	1.288645
00:00:00.249	1.313553	1.369231	1.237363
00:00:00.249	1.305495	1.306960	1.235165
00:00:00.249	1.318681	1.295971	1.271795
00:00:00.250	1.287912	1.260806	1.297436
00:00:00.250	1.312821	1.293773	1.394139
00:00:00.250	1.313553	1.279121	1.385348
00:00:00.251	1.314286	1.298168	1.402198
00:00:00.251	1.309158	1.293773	1.341392
00:00:00.252	1.298168	1.261538	1.297436
00:00:00.252	1.314286	1.300366	1.298168
00:00:00.252	1.309890	1.323077	1.268864
00:00:00.253	1.312821	1.297436	1.283516
00:00:00.253	1.312088	1.260073	1.298901
00:00:00.253	1.321612	1.239560	1.299634
00:00:00.254	1.322344	1.166300	1.299634
00:00:00.254	1.304029	1.106960	1.293040
00:00:00.254	1.313553	1.185348	1.295238
00:00:00.256	1.304029	1.292308	1.293773
00:00:00.256	1.289377	1.340659	1.291575
00:00:00.256	1.301832	1.360440	1.290842
00:00:00.256	1.303297	1.350916	1.292308
00:00:00.256	1.309890	1.360440	1.275458
00:00:00.258	1.305495	1.360440	1.268132
00:00:00.258	1.313553	1.341392	1.286447
00:00:00.258	1.305495	1.336264	1.295971
00:00:00.258	1.292308	1.331868	1.294505
00:00:00.258	1.299634	1.321612	1.245421
00:00:00.258	1.309158	1.326740	1.219780
00:00:00.261	1.315018	1.324542	1.249084
00:00:00.261	1.312088	1.313553	1.334066
00:00:00.261	1.309158	1.317216	1.350183
00:00:00.261	1.292308	1.309890	1.358242
00:00:00.261	1.308425	1.331868	1.414652
00:00:00.261	1.319414	1.326007	1.434432
00:00:00.261	1.303297	1.304762	1.417582
00:00:00.261	1.330403	1.315751	1.398535
00:00:00.262	1.328205	1.306960	1.292308
00:00:00.262	1.337729	1.294505	1.274725
00:00:00.262	1.326007	1.295971	1.264469
00:00:00.263	1.320879	1.296703	1.253480
00:00:00.263	1.293773	1.282051	1.246886
00:00:00.295	1.298901	1.301099	1.263736
00:00:00.296	1.311355	1.304762	1.276190
00:00:00.296	1.301099	1.292308	1.275458
00:00:00.296	1.314286	1.312821	1.295971
00:00:00.297	1.307692	1.309890	1.287179
00:00:00.297	1.295238	1.295971	1.284249
00:00:00.298	1.309158	1.318681	1.300366
00:00:00.298	1.310623	1.295971	1.292308
00:00:00.298	1.300366	1.304029	1.305495
00:00:00.298	1.304762	1.317949	1.316484
00:00:00.299	1.317216	1.296703	1.305495
00:00:00.299	1.325275	1.299634	1.300366
00:00:00.299	1.322344	1.323810	1.304029
00:00:00.300	1.309158	1.319414	1.300366
00:00:00.300	1.300366	1.292308	1.296703
00:00:00.301	1.309158	1.279121	1.297436
00:00:00.301	1.295238	1.246886	1.293040
00:00:00.301	1.296703	1.265201	1.300366
00:00:00.302	1.301099	1.291575	1.306960
00:00:00.302	1.298901	1.309158	1.302564
00:00:00.302	1.294505	1.307692	1.300366
00:00:00.303	1.293040	1.304762	1.297436
00:00:00.303	1.300366	1.312088	1.300366
00:00:00.303	1.306227	1.311355	1.290110
00:00:00.304	1.325275	1.352381	1.308425
00:00:00.304	1.351648	1.383883	1.307692
00:00:00.304	1.328205	1.378755	1.308425
00:00:00.305	1.317216	1.406593	1.312088
00:00:00.305	1.307692	1.399267	1.316484
00:00:00.306	1.291575	1.320147	1.303297
00:00:00.306	1.309890	1.271795	1.320147
00:00:00.306	1.305495	1.205128	1.308425
00:00:00.307	1.275458	1.131868	1.297436
00:00:00.307	1.265201	1.128938	1.302564
00:00:00.307	1.252015	1.167766	1.307692
00:00:00.308	1.265934	1.195604	1.303297
00:00:00.308	1.289377	1.275458	1.309890
00:00:00.308	1.320879	1.405128	1.296703
00:00:00.309	1.350916	1.419048	1.301832
00:00:00.309	1.400000	1.348718	1.309890
00:00:00.309	1.411722	1.285714	1.294505
00:00:00.310	1.367766	1.301832	1.290842
00:00:00.310	1.326740	1.342857	1.299634
00:00:00.311	1.278388	1.408059	1.303297
00:00:00.311	1.252015	1.389011	1.298901
00:00:00.311	1.284982	1.310623	1.304029
00:00:00.312	1.260806	1.241026	1.300366
00:00:00.312	1.273993	1.296703	1.308425
00:00:00.312	1.305495	1.332601	1.312088
00:00:00.313	1.320879	1.311355	1.292308
00:00:00.345	1.356044	1.302564	1.304762
00:00:00.345	1.320879	1.326007	1.253480
00:00:00.346	1.286447	1.308425	1.242491
00:00:00.346	1.284249	1.306960	1.288645
00:00:00.346	1.292308	1.365568	1.291575
00:00:00.347	1.304029	1.487179	1.273260
00:00:00.347	1.331868	1.490110	1.282784
00:00:00.347	1.342125	1.376557	1.287179
00:00:00.348	1.338462	1.216117	1.396337
00:00:00.348	1.323810	1.175092	1.453480
00:00:00.348	1.289377	1.293773	1.343590
00:00:00.349	1.270330	1.279853	1.300366
00:00:00.349	1.192674	1.101832	1.293040
00:00:00.350	1.206593	0.930403	1.321612
00:00:00.350	1.301832	1.037363	1.353114
00:00:00.350	1.382418	1.255678	1.333333
00:00:00.353	1.443223	1.375092	1.296703
00:00:00.353	1.434432	1.299634	1.292308
00:00:00.353	1.383883	1.314286	1.286447
00:00:00.353	1.353846	1.474725	1.283516
00:00:00.353	1.297436	1.479853	1.261538
00:00:00.353	1.267399	1.401465	1.266667
00:00:00.353	1.262271	1.323077	1.288645
00:00:00.353	1.268132	1.284249	1.299634
00:00:00.353	1.283516	1.272527	1.295238
00:00:00.354	1.292308	1.274725	1.308425
00:00:00.354	1.290842	1.285714	1.295238
00:00:00.355	1.268132	1.285714	1.296703
00:00:00.355	1.271062	1.314286	1.313553
00:00:00.355	1.300366	1.323810	1.323810
00:00:00.358	1.281319	1.308425	1.306960
00:00:00.358	1.323810	1.331868	1.306960
00:00:00.358	1.335531	1.328205	1.298168
00:00:00.358	1.340659	1.314286	1.290842
00:00:00.358	1.328205	1.391209	1.293040
00:00:00.358	1.295238	1.400733	1.293040
00:00:00.358	1.298168	1.317949	1.309890
00:00:00.358	1.299634	1.253480	1.303297
00:00:00.358	1.293040	1.257143	1.303297
00:00:00.359	1.306227	1.315751	1.306227
00:00:00.359	1.322344	1.369231	1.306960
00:00:00.360	1.276923	1.391209	1.311355
00:00:00.360	1.280586	1.331136	1.289377
00:00:00.360	1.377289	1.286447	1.290842
00:00:00.361	1.419780	1.276923	1.300366
00:00:00.361	1.439560	1.219780	1.306960
00:00:00.361	1.402198	1.219780	1.318681
00:00:00.362	1.331868	1.251282	1.309158
00:00:00.362	1.315018	1.251282	1.311355
00:00:00.362	1.257143	1.246886	1.323810
00:00:00.395	1.212454	1.268864	1.300366
00:00:00.395	1.207326	1.331136	1.294505
00:00:00.395	1.201465	1.386813	1.291575
00:00:00.396	1.212454	1.406593	1.285714
00:00:00.396	1.259341	1.378022	1.294505
00:00:00.396	1.305495	1.358974	1.309158
00:00:00.397	1.322344	1.359707	1.297436
00:00:00.397	1.323810	1.394139	1.306227
00:00:00.397	1.323077	1.328938	1.300366
00:00:00.398	1.327473	1.289377	1.306960
00:00:00.398	1.277656	1.296703	1.310623
00:00:00.399	1.302564	1.260073	1.313553
00:00:00.399	1.353846	1.272527	1.299634
00:00:00.399	1.391209	1.360440	1.323810
00:00:00.400	1.355311	1.313553	1.310623
00:00:00.400	1.320879	1.265934	1.304762
00:00:00.400	1.308425	1.181685	1.312088
00:00:00.401	1.295971	1.156777	1.295238
00:00:00.401	1.295971	1.172161	1.293040
00:00:00.401	1.319414	1.199267	1.290110
00:00:00.403	1.300366	1.279853	1.296703
00:00:00.403	1.313553	1.400000	1.276923
00:00:00.403	1.336264	1.435165	1.273993
00:00:00.403	1.398535	1.416850	1.287912
00:00:00.403	1.422711	1.329670	1.284982
00:00:00.404	1.411722	1.269597	1.328205
00:00:00.404	1.340659	1.246886	1.347253
00:00:00.404	1.264469	1.263004	1.341392
00:00:00.405	1.208059	1.260073	1.334799
00:00:00.405	1.163370	1.269597	1.337729
00:00:00.405	1.165568	1.281319	1.294505
00:00:00.406	1.227839	1.317216	1.285714
00:00:00.406	1.276923	1.391209	1.279121
00:00:00.406	1.312088	1.422711	1.293040
00:00:00.407	1.326007	1.424908	1.313553
00:00:00.407	1.327473	1.353846	1.288645
00:00:00.407	1.325275	1.318681	1.279121
00:00:00.408	1.335531	1.271795	1.257143
00:00:00.408	1.360440	1.246886	1.246886
00:00:00.409	1.361905	1.268132	1.276190
00:00:00.409	1.320879	1.256410	1.331136
00:00:00.409	1.298168	1.315018	1.336996
00:00:00.410	1.291575	1.379487	1.315751
00:00:00.410	1.284982	1.458608	1.248352
00:00:00.410	1.323077	1.532601	1.249817
00:00:00.411	1.372161	1.512088	1.276923
00:00:00.411	1.394872	1.368498	1.340659
00:00:00.411	1.369963	1.252747	1.421978
00:00:00.412	1.290842	1.194872	1.482051
00:00:00.412	1.259341	1.151648	1.430037
00:00:00.444	1.219780	1.106227	1.310623
00:00:00.445	1.165568	1.053480	1.271795
00:00:00.445	1.190476	1.109158	1.264469
00:00:00.445	1.320879	1.214652	1.261538
00:00:00.446	1.476923	1.254945	1.271795
00:00:00.446	1.489377	1.394139	1.276923
00:00:00.446	1.406593	1.531136	1.288645
00:00:00.447	1.293773	1.459341	1.268864
00:00:00.447	1.163370	1.303297	1.269597
00:00:00.449	1.137729	1.210989	1.283516
00:00:00.449	1.173626	1.220513	1.293773
00:00:00.449	1.242491	1.232967	1.300366
00:00:00.450	1.328938	1.243223	1.308425
00:00:00.450	1.369963	1.345055	1.317949
00:00:00.450	1.361905	1.350183	1.306960
00:00:00.450	1.353114	1.367766	1.316484
00:00:00.450	1.326007	1.364103	1.312821
00:00:00.450	1.296703	1.331136	1.298901
00:00:00.453	1.281319	1.320879	1.296703
00:00:00.453	1.312088	1.323077	1.309890
00:00:00.453	1.357509	1.331136	1.300366
00:00:00.453	1.389011	1.353114	1.306227
00:00:00.453	1.398535	1.397070	1.291575
00:00:00.453	1.352381	1.384615	1.289377
00:00:00.453	1.315018	1.356777	1.304762
00:00:00.453	1.271795	1.351648	1.305495
00:00:00.454	1.300366	1.395604	1.321612
00:00:00.455	1.313553	1.411722	1.315751
00:00:00.455	1.299634	1.225641	1.312088
00:00:00.455	1.318681	1.128205	1.308425
00:00:00.455	1.326740	1.125275	1.300366
00:00:00.455	1.301832	1.173626	1.293040
00:00:00.456	1.300366	1.291575	1.312088
00:00:00.456	1.306960	1.260806	1.300366
00:00:00.456	1.322344	1.272527	1.306227
00:00:00.457	1.328205	1.306960	1.310623
00:00:00.457	1.305495	1.322344	1.310623
00:00:00.458	1.301099	1.290842	1.299634
00:00:00.458	1.288645	1.267399	1.294505
00:00:00.458	1.275458	1.273260	1.285714
00:00:00.459	1.276923	1.304029	1.298901
00:00:00.459	1.253480	1.323077	1.300366
00:00:00.459	1.285714	1.341392	1.293040
00:00:00.460	1.298168	1.384615	1.306227
00:00:00.460	1.301832	1.378022	1.309890
00:00:00.460	1.315751	1.317949	1.302564
00:00:00.461	1.316484	1.260806	1.306227
00:00:00.461	1.336996	1.265201	1.310623
00:00:00.462	1.375092	1.300366	1.313553
00:00:00.462	1.340659	1.323077	1.319414
00:00:00.494	1.308425	1.342857	1.310623
00:00:00.494	1.297436	1.345055	1.305495
00:00:00.495	1.297436	1.324542	1.304029
00:00:00.495	1.306227	1.389011	1.304029
00:00:00.495	1.294505	1.405128	1.304029
00:00:00.496	1.315018	1.450549	1.300366
00:00:00.496	1.316484	1.389011	1.297436
00:00:00.497	1.323077	1.316484	1.304762
00:00:00.497	1.332601	1.253480	1.304762
00:00:00.497	1.331868	1.232234	1.304762
00:00:00.498	1.350183	1.261538	1.303297
00:00:00.498	1.342857	1.229304	1.297436
00:00:00.498	1.332601	1.218315	1.284982
00:00:00.499	1.316484	1.265934	1.305495
00:00:00.499	1.320147	1.331136	1.301832
00:00:00.499	1.331136	1.404396	1.309158
00:00:00.500	1.320147	1.378755	1.311355
00:00:00.500	1.270330	1.286447	1.301832
00:00:00.500	1.195604	1.142125	1.302564
00:00:00.501	1.182418	1.170696	1.307692
00:00:00.501	1.225641	1.241026	1.303297
00:00:00.502	1.298901	1.256410	1.300366
00:00:00.502	1.346520	1.175092	1.284982
00:00:00.502	1.358974	1.229304	1.280586
00:00:00.503	1.372161	1.331136	1.303297
00:00:00.503	1.342125	1.378755	1.302564
00:00:00.503	1.326740	1.363370	1.300366
00:00:00.504	1.309890	1.447619	1.308425
00:00:00.504	1.277656	1.460073	1.299634
00:00:00.504	1.262271	1.383150	1.322344
00:00:00.505	1.258608	1.311355	1.318681
00:00:00.505	1.312088	1.288645	1.309890
00:00:00.505	1.358974	1.298901	1.309158
00:00:00.506	1.382418	1.321612	1.312088
00:00:00.507	1.389744	1.313553	1.306960
00:00:00.507	1.366300	1.322344	1.298168
00:00:00.507	1.323810	1.314286	1.288645
00:00:00.507	1.272527	1.334799	1.300366
00:00:00.508	1.222711	1.315018	1.285714
00:00:00.508	1.224176	1.285714	1.295238
00:00:00.508	1.291575	1.230037	1.279121
00:00:00.509	1.315751	1.289377	1.285714
00:00:00.509	1.293040	1.255678	1.280586
00:00:00.509	1.310623	1.191941	1.290110
00:00:00.510	1.339194	1.180220	1.337729
00:00:00.510	1.315018	1.194139	1.342857
00:00:00.512	1.295971	1.309890	1.321612
00:00:00.512	1.310623	1.403663	1.315751
00:00:00.512	1.307692	1.315751	1.292308
00:00:00.512	1.302564	1.263736	1.293773
00:00:00.544	1.307692	1.290842	1.293040
00:00:00.544	1.300366	1.304762	1.295238
00:00:00.544	1.320879	1.287179	1.300366
00:00:00.545	1.310623	1.300366	1.300366
00:00:00.545	1.316484	1.357509	1.293773
00:00:00.546	1.316484	1.405861	1.315751
00:00:00.546	1.296703	1.448352	1.309890
00:00:00.546	1.288645	1.452015	1.291575
00:00:00.549	1.323810	1.427839	1.309158
00:00:00.549	1.326740	1.411722	1.306960
00:00:00.549	1.340659	1.308425	1.300366
00:00:00.549	1.335531	1.227839	1.300366
00:00:00.549	1.323810	1.178755	1.304762
00:00:00.549	1.306227	1.171429	1.298168
00:00:00.549	1.306960	1.253480	1.309890
00:00:00.549	1.304762	1.315018	1.309890
00:00:00.549	1.296703	1.314286	1.307692
00:00:00.550	1.274725	1.288645	1.317216
00:00:00.550	1.300366	1.260806	1.309158
00:00:00.551	1.348718	1.263736	1.300366
00:00:00.551	1.370696	1.246886	1.294505
00:00:00.551	1.358974	1.236630	1.306227
00:00:00.552	1.296703	1.260073	1.298168
00:00:00.552	1.293773	1.336264	1.307692
00:00:00.552	1.296703	1.357509	1.302564
00:00:00.553	1.327473	1.326007	1.302564
00:00:00.553	1.315751	1.279121	1.292308
00:00:00.553	1.297436	1.328205	1.297436
00:00:00.554	1.282051	1.301832	1.295971
00:00:00.554	1.268864	1.298168	1.306227
00:00:00.554	1.279121	1.353114	1.299634
00:00:00.555	1.258608	1.330403	1.299634
00:00:00.555	1.232234	1.361905	1.297436
00:00:00.556	1.259341	1.356777	1.295238
00:00:00.556	1.306960	1.367033	1.306227
00:00:00.556	1.336996	1.286447	1.311355
00:00:00.557	1.350183	1.213187	1.309158
00:00:00.557	1.367766	1.197802	1.308425
00:00:00.557	1.345055	1.231502	1.310623
00:00:00.558	1.318681	1.304029	1.308425
00:00:00.558	1.313553	1.353114	1.295971
00:00:00.559	1.329670	1.336996	1.301099
00:00:00.559	1.343590	1.350183	1.297436
00:00:00.559	1.349451	1.347253	1.306960
00:00:00.559	1.270330	1.302564	1.296703
00:00:00.560	1.263736	1.312088	1.300366
00:00:00.560	1.290110	1.257143	1.304029
00:00:00.561	1.374359	1.270330	1.296703
00:00:00.561	1.386813	1.326740	1.295971
00:00:00.561	1.370696	1.334066	1.307692
00:00:00.593	1.327473	1.315018	1.304029
00:00:00.594	1.291575	1.324542	1.312088
00:00:00.594	1.210989	1.288645	1.295971
00:00:00.595	1.207326	1.295238	1.299634
00:00:00.595	1.285714	1.293773	1.284982
00:00:00.595	1.297436	1.305495	1.294505
00:00:00.596	1.290842	1.309890	1.294505
00:00:00.596	1.334066	1.326740	1.312821
00:00:00.596	1.339927	1.318681	1.304029
00:00:00.597	1.329670	1.366300	1.304762
00:00:00.597	1.357509	1.378022	1.312088
00:00:00.597	1.305495	1.282051	1.291575
00:00:00.598	1.295971	1.228571	1.306960
00:00:00.598	1.268864	1.230037	1.283516
00:00:00.598	1.290110	1.270330	1.295238
00:00:00.599	1.290110	1.304029	1.301099
00:00:00.599	1.298168	1.309158	1.315018
00:00:00.600	1.353114	1.320879	1.345788
00:00:00.600	1.383883	1.346520	1.324542
00:00:00.600	1.351648	1.364103	1.311355
00:00:00.601	1.320147	1.301099	1.290110
00:00:00.601	1.306227	1.257875	1.288645
00:00:00.601	1.279853	1.276923	1.287179
00:00:00.602	1.257143	1.316484	1.283516
00:00:00.602	1.202930	1.324542	1.279853
00:00:00.602	1.213187	1.368498	1.295238
00:00:00.603	1.320147	1.364835	1.306960
00:00:00.603	1.354579	1.331136	1.312821
00:00:00.603	1.353114	1.299634	1.314286
00:00:00.604	1.331868	1.257875	1.314286
00:00:00.604	1.326007	1.301832	1.306227
00:00:00.606	1.303297	1.322344	1.308425
00:00:00.606	1.267399	1.324542	1.311355
00:00:00.606	1.283516	1.286447	1.304029
00:00:00.606	1.329670	1.242491	1.299634
00:00:00.606	1.362637	1.229304	1.294505
00:00:00.606	1.361905	1.274725	1.295971
00:00:00.607	1.317216	1.297436	1.292308
00:00:00.607	1.304029	1.312088	1.309158
00:00:00.607	1.280586	1.305495	1.303297
00:00:00.608	1.291575	1.317216	1.295971
00:00:00.608	1.326740	1.334066	1.314286
00:00:00.608	1.328938	1.308425	1.314286
00:00:00.609	1.304762	1.274725	1.295238
00:00:00.609	1.313553	1.277656	1.298901
00:00:00.612	1.309890	1.309158	1.304762
00:00:00.612	1.299634	1.330403	1.302564
00:00:00.612	1.300366	1.337729	1.305495
00:00:00.612	1.289377	1.346520	1.310623
00:00:00.612	1.276190	1.308425	1.300366
00:00:00.643	1.291575	1.271062	1.303297
00:00:00.643	1.284249	1.252747	1.298901
00:00:00.646	1.284249	1.261538	1.297436
00:00:00.646	1.320879	1.281319	1.307692
00:00:00.646	1.370696	1.301099	1.298168
00:00:00.646	1.384615	1.298901	1.297436
00:00:00.646	1.391941	1.324542	1.300366
00:00:00.646	1.370696	1.335531	1.306227
00:00:00.646	1.309158	1.338462	1.306227
00:00:00.646	1.294505	1.332601	1.308425
00:00:00.647	1.262271	1.321612	1.302564
00:00:00.647	1.291575	1.328938	1.296703
00:00:00.647	1.319414	1.358974	1.300366
00:00:00.648	1.313553	1.351648	1.305495
00:00:00.649	1.274725	1.329670	1.298901
00:00:00.649	1.250549	1.309158	1.298168
00:00:00.649	1.214652	1.293040	1.305495
00:00:00.649	1.232234	1.316484	1.300366
00:00:00.650	1.327473	1.318681	1.306227
00:00:00.650	1.369231	1.246154	1.300366
00:00:00.650	1.342857	1.215385	1.298901
00:00:00.651	1.328205	1.230769	1.303297
00:00:00.651	1.310623	1.281319	1.305495
00:00:00.651	1.295238	1.258608	1.302564
00:00:00.652	1.294505	1.266667	1.307692
00:00:00.652	1.317216	1.304029	1.295238
00:00:00.652	1.319414	1.317949	1.296703
00:00:00.653	1.316484	1.361172	1.293040
00:00:00.653	1.315751	1.427839	1.301832
00:00:00.654	1.295971	1.404396	1.307692
00:00:00.654	1.330403	1.394139	1.315018
00:00:00.654	1.333333	1.311355	1.304029
00:00:00.655	1.329670	1.270330	1.311355
00:00:00.655	1.321612	1.235165	1.315751
00:00:00.655	1.305495	1.205861	1.300366
00:00:00.656	1.290110	1.201465	1.290842
00:00:00.656	1.303297	1.252015	1.300366
00:00:00.656	1.293773	1.260073	1.299634
00:00:00.657	1.287179	1.276190	1.287179
00:00:00.657	1.293773	1.318681	1.299634
00:00:00.657	1.281319	1.320147	1.289377
00:00:00.658	1.292308	1.326007	1.279121
00:00:00.658	1.322344	1.361905	1.300366
00:00:00.659	1.310623	1.329670	1.326740
00:00:00.659	1.305495	1.304029	1.328938
00:00:00.659	1.344322	1.296703	1.331868
00:00:00.660	1.339927	1.334799	1.309890
00:00:00.660	1.336996	1.342125	1.309158
00:00:00.660	1.316484	1.320879	1.300366
00:00:00.661	1.290842	1.302564	1.295238
00:00:00.693	1.282784	1.295971	1.285714
00:00:00.693	1.303297	1.294505	1.295238
00:00:00.694	1.314286	1.298901	1.297436
00:00:00.694	1.312088	1.280586	1.282784
00:00:00.694	1.327473	1.303297	1.295971
00:00:00.695	1.320879	1.320879	1.303297
00:00:00.695	1.284249	1.301099	1.290110
00:00:00.695	1.278388	1.304029	1.303297
00:00:00.696	1.284982	1.314286	1.312088
00:00:00.696	1.284982	1.312821	1.298901
00:00:00.696	1.283516	1.320879	1.312088
00:00:00.697	1.300366	1.325275	1.312088
00:00:00.697	1.295971	1.312088	1.312088
00:00:00.697	1.266667	1.344322	1.312088
00:00:00.698	1.290842	1.412454	1.306227
00:00:00.698	1.306960	1.375824	1.284249
00:00:00.699	1.342125	1.337729	1.288645
00:00:00.699	1.358242	1.260806	1.294505
00:00:00.699	1.382418	1.252747	1.300366
00:00:00.700	1.345788	1.278388	1.304029
00:00:00.700	1.304762	1.239560	1.320879
00:00:00.700	1.273993	1.201465	1.312821
00:00:00.701	1.248352	1.202198	1.303297
00:00:00.701	1.303297	1.268132	1.309158
00:00:00.701	1.318681	1.309890	1.300366
00:00:00.702	1.309890	1.298168	1.292308
00:00:00.702	1.334066	1.330403	1.304029
00:00:00.702	1.342125	1.355311	1.298168
00:00:00.704	1.321612	1.340659	1.290110
00:00:00.704	1.320879	1.342125	1.293040
00:00:00.706	1.354579	1.300366	1.304762
00:00:00.706	1.334799	1.254212	1.309890
00:00:00.706	1.289377	1.256410	1.304762
00:00:00.706	1.283516	1.296703	1.300366
00:00:00.706	1.280586	1.309158	1.303297
00:00:00.706	1.255678	1.304029	1.306227
00:00:00.706	1.257143	1.319414	1.306227
00:00:00.706	1.290110	1.327473	1.309158
00:00:00.706	1.323810	1.331868	1.311355
00:00:00.709	1.339194	1.349451	1.312088
00:00:00.709	1.341392	1.351648	1.295238
00:00:00.709	1.325275	1.358242	1.281319
00:00:00.709	1.309158	1.370696	1.294505
00:00:00.709	1.285714	1.334066	1.300366
00:00:00.709	1.276923	1.300366	1.295971
00:00:00.709	1.304029	1.276923	1.306960
00:00:00.709	1.311355	1.265934	1.312088
00:00:00.710	1.309890	1.272527	1.306227
00:00:00.710	1.304029	1.257875	1.311355
00:00:00.710	1.308425	1.249817	1.309890
00:00:00.743	1.323077	1.317216	1.312088
00:00:00.743	1.342125	1.370696	1.317949
00:00:00.743	1.330403	1.350916	1.309158
00:00:00.744	1.307692	1.283516	1.298901
00:00:00.744	1.284982	1.233700	1.309890
00:00:00.744	1.271795	1.209524	1.293040
00:00:00.745	1.293773	1.260073	1.295971
00:00:00.745	1.289377	1.210989	1.297436
00:00:00.745	1.311355	1.208791	1.295971
00:00:00.746	1.312821	1.273260	1.290842
00:00:00.746	1.321612	1.383150	1.305495
00:00:00.746	1.327473	1.390476	1.304762
00:00:00.747	1.323810	1.339194	1.305495
00:00:00.747	1.332601	1.309890	1.302564
00:00:00.748	1.336264	1.309158	1.317216
00:00:00.748	1.304762	1.309158	1.309890
00:00:00.748	1.298901	1.331136	1.309890
00:00:00.749	1.282051	1.321612	1.300366
00:00:00.749	1.299634	1.333333	1.301832
00:00:00.749	1.312088	1.328938	1.308425
00:00:00.750	1.331868	1.333333	1.304029
00:00:00.750	1.324542	1.375824	1.298168
00:00:00.750	1.326740	1.386081	1.309890
00:00:00.751	1.312088	1.356777	1.308425
00:00:00.751	1.276190	1.307692	1.290110
00:00:00.751	1.262271	1.266667	1.304762
00:00:00.752	1.255678	1.252747	1.304029
00:00:00.752	1.249084	1.195604	1.297436
00:00:00.753	1.260073	1.183150	1.286447
00:00:00.753	1.336264	1.286447	1.298168
00:00:00.753	1.430037	1.362637	1.300366
00:00:00.754	1.424176	1.365568	1.300366
00:00:00.754	1.397802	1.336264	1.312088
00:00:00.754	1.342857	1.294505	1.312821
00:00:00.755	1.285714	1.271795	1.315751
00:00:00.755	1.235897	1.323810	1.314286
00:00:00.755	1.280586	1.330403	1.298901
00:00:00.756	1.298901	1.289377	1.291575
00:00:00.756	1.321612	1.273260	1.313553
00:00:00.756	1.294505	1.285714	1.293773
00:00:00.757	1.284249	1.308425	1.294505
00:00:00.757	1.265934	1.319414	1.292308
00:00:00.758	1.277656	1.405861	1.295971
00:00:00.758	1.306960	1.388278	1.306227
00:00:00.758	1.323810	1.310623	1.342857
00:00:00.759	1.328938	1.225641	1.343590
00:00:00.759	1.321612	1.218315	1.323077
00:00:00.759	1.315751	1.272527	1.304762
00:00:00.760	1.316484	1.313553	1.297436
00:00:00.760	1.332601	1.305495	1.302564
00:00:00.792	1.348718	1.345788	1.299634
00:00:00.793	1.351648	1.345788	1.306227
00:00:00.793	1.312088	1.316484	1.305495
00:00:00.793	1.276923	1.315018	1.299634
00:00:00.794	1.259341	1.293773	1.304762
00:00:00.794	1.253480	1.299634	1.295971
00:00:00.794	1.276923	1.289377	1.303297
