timestamp	ch1	ch2	ch3
00:00:00.000	1.274725	1.298901	1.289377
00:00:00.000	1.226374	1.286447	1.290110
00:00:00.000	1.232234	1.257143	1.293773
00:00:00.001	1.268132	1.258608	1.301099
00:00:00.001	1.283516	1.273260	1.297436
00:00:00.002	1.304762	1.284249	1.295238
00:00:00.002	1.312088	1.290842	1.286447
00:00:00.002	1.317216	1.308425	1.300366
00:00:00.003	1.318681	1.339194	1.316484
00:00:00.003	1.317216	1.332601	1.313553
00:00:00.003	1.306227	1.327473	1.311355
00:00:00.004	1.312088	1.325275	1.313553
00:00:00.004	1.322344	1.315018	1.310623
00:00:00.004	1.326007	1.344322	1.316484
00:00:00.005	1.327473	1.343590	1.309890
00:00:00.005	1.317949	1.298901	1.300366
00:00:00.005	1.301099	1.284982	1.296703
00:00:00.006	1.304762	1.299634	1.300366
00:00:00.006	1.295238	1.296703	1.291575
00:00:00.007	1.315018	1.312088	1.296703
00:00:00.007	1.307692	1.282784	1.287179
00:00:00.007	1.320879	1.281319	1.295238
00:00:00.008	1.312821	1.306960	1.300366
00:00:00.008	1.311355	1.332601	1.295238
00:00:00.008	1.319414	1.370696	1.317216
00:00:00.009	1.308425	1.331136	1.292308
00:00:00.009	1.318681	1.275458	1.309890
00:00:00.009	1.317216	1.273993	1.308425
00:00:00.010	1.317949	1.302564	1.314286
00:00:00.010	1.318681	1.276190	1.309158
00:00:00.010	1.306227	1.242491	1.297436
00:00:00.011	1.319414	1.251282	1.309890
00:00:00.011	1.308425	1.235897	1.295238
00:00:00.012	1.323077	1.261538	1.297436
00:00:00.012	1.308425	1.331136	1.298168
00:00:00.012	1.263004	1.323810	1.289377
00:00:00.013	1.259341	1.335531	1.281319
00:00:00.013	1.263736	1.342125	1.290110
00:00:00.013	1.292308	1.374359	1.299634
00:00:00.014	1.306960	1.384615	1.300366
00:00:00.014	1.339927	1.369963	1.316484
00:00:00.014	1.321612	1.271795	1.306960
00:00:00.016	1.311355	1.221245	1.309890
00:00:00.016	1.320879	1.245421	1.317216
00:00:00.017	1.313553	1.283516	1.312088
00:00:00.017	1.303297	1.293040	1.300366
00:00:00.017	1.302564	1.295238	1.298901
00:00:00.018	1.302564	1.294505	1.299634
00:00:00.018	1.301099	1.296703	1.300366
00:00:00.018	1.312088	1.294505	1.296703
00:00:00.050	1.322344	1.293773	1.303297
00:00:00.050	1.312088	1.313553	1.287179
00:00:00.051	1.312088	1.329670	1.290842
00:00:00.051	1.320879	1.335531	1.300366
00:00:00.051	1.323810	1.319414	1.298168
00:00:00.051	1.315018	1.312821	1.300366
00:00:00.056	1.327473	1.321612	1.312821
00:00:00.056	1.303297	1.306227	1.317949
00:00:00.056	1.288645	1.278388	1.310623
00:00:00.056	1.238828	1.274725	1.307692
00:00:00.056	1.267399	1.303297	1.315751
00:00:00.056	1.295971	1.331868	1.310623
00:00:00.056	1.328938	1.334799	1.314286
00:00:00.056	1.361905	1.315751	1.309158
00:00:00.056	1.361172	1.293040	1.296703
00:00:00.056	1.356777	1.292308	1.302564
00:00:00.056	1.304762	1.282784	1.289377
00:00:00.056	1.282784	1.329670	1.300366
00:00:00.056	1.271062	1.337729	1.294505
00:00:00.056	1.297436	1.326007	1.291575
00:00:00.058	1.315018	1.304029	1.286447
00:00:00.058	1.320879	1.290842	1.297436
00:00:00.058	1.309158	1.282784	1.287912
00:00:00.058	1.310623	1.299634	1.307692
00:00:00.058	1.306227	1.289377	1.304029
00:00:00.058	1.293040	1.306227	1.309158
00:00:00.059	1.290110	1.323810	1.313553
00:00:00.059	1.287179	1.308425	1.308425
00:00:00.059	1.305495	1.306960	1.312821
00:00:00.060	1.323810	1.306227	1.309890
00:00:00.060	1.327473	1.284249	1.305495
00:00:00.061	1.320147	1.271062	1.308425
00:00:00.061	1.309158	1.281319	1.300366
00:00:00.061	1.314286	1.303297	1.298901
00:00:00.062	1.313553	1.310623	1.296703
00:00:00.062	1.313553	1.315018	1.296703
00:00:00.062	1.309158	1.294505	1.294505
00:00:00.063	1.315751	1.286447	1.298168
00:00:00.063	1.326007	1.290842	1.302564
00:00:00.063	1.318681	1.306960	1.299634
00:00:00.064	1.308425	1.323077	1.307692
00:00:00.064	1.309158	1.320147	1.306227
00:00:00.065	1.312088	1.319414	1.306960
00:00:00.065	1.307692	1.326740	1.316484
00:00:00.065	1.303297	1.323077	1.315751
00:00:00.066	1.303297	1.317949	1.315018
00:00:00.066	1.298901	1.305495	1.314286
00:00:00.066	1.305495	1.316484	1.314286
00:00:00.067	1.302564	1.308425	1.301832
00:00:00.067	1.313553	1.307692	1.304762
00:00:00.099	1.318681	1.308425	1.298168
00:00:00.100	1.322344	1.298168	1.298901
00:00:00.100	1.325275	1.319414	1.296703
00:00:00.100	1.328205	1.331136	1.285714
00:00:00.101	1.338462	1.335531	1.298168
00:00:00.101	1.318681	1.296703	1.290110
00:00:00.101	1.300366	1.285714	1.304029
00:00:00.102	1.297436	1.282784	1.311355
00:00:00.102	1.292308	1.284982	1.309158
00:00:00.102	1.282051	1.287179	1.308425
00:00:00.103	1.290842	1.303297	1.312821
00:00:00.103	1.282784	1.288645	1.305495
00:00:00.103	1.286447	1.288645	1.316484
00:00:00.104	1.297436	1.305495	1.320147
00:00:00.104	1.309158	1.298901	1.300366
00:00:00.105	1.327473	1.295238	1.307692
00:00:00.105	1.332601	1.310623	1.298901
00:00:00.105	1.317949	1.335531	1.297436
00:00:00.106	1.323810	1.331868	1.300366
00:00:00.106	1.319414	1.309890	1.289377
00:00:00.106	1.317949	1.367766	1.298168
00:00:00.107	1.323077	1.402930	1.306227
00:00:00.107	1.312821	1.364103	1.304029
00:00:00.107	1.310623	1.309890	1.306227
00:00:00.108	1.314286	1.262271	1.303297
00:00:00.108	1.320879	1.238828	1.300366
00:00:00.108	1.310623	1.244689	1.300366
00:00:00.110	1.301099	1.246886	1.316484
00:00:00.110	1.297436	1.225641	1.317216
00:00:00.110	1.298901	1.241026	1.310623
00:00:00.110	1.295971	1.246154	1.300366
00:00:00.110	1.287179	1.268864	1.299634
00:00:00.112	1.277656	1.291575	1.296703
00:00:00.112	1.284249	1.298901	1.299634
00:00:00.112	1.326007	1.316484	1.295971
00:00:00.113	1.322344	1.316484	1.279853
00:00:00.113	1.336996	1.336264	1.294505
00:00:00.113	1.331868	1.346520	1.298901
00:00:00.113	1.306227	1.335531	1.296703
00:00:00.113	1.314286	1.336264	1.304762
00:00:00.114	1.301099	1.316484	1.295971
00:00:00.114	1.303297	1.326007	1.299634
00:00:00.114	1.308425	1.331868	1.309158
00:00:00.115	1.252747	1.334799	1.317949
00:00:00.115	1.260073	1.330403	1.315018
00:00:00.115	1.300366	1.353846	1.317949
00:00:00.116	1.326740	1.330403	1.298901
00:00:00.116	1.386813	1.324542	1.307692
00:00:00.116	1.391209	1.282784	1.297436
00:00:00.120	1.367766	1.260073	1.305495
00:00:00.152	1.317216	1.257875	1.300366
00:00:00.152	1.273260	1.232234	1.282051
00:00:00.152	1.273260	1.228571	1.297436
00:00:00.152	1.295971	1.262271	1.292308
00:00:00.152	1.299634	1.314286	1.297436
00:00:00.152	1.288645	1.318681	1.291575
00:00:00.152	1.284249	1.325275	1.304762
00:00:00.152	1.299634	1.342125	1.312821
00:00:00.152	1.309890	1.336264	1.315751
00:00:00.152	1.303297	1.315751	1.300366
00:00:00.152	1.304029	1.315751	1.312821
00:00:00.153	1.304029	1.304029	1.312821
00:00:00.153	1.303297	1.294505	1.310623
00:00:00.154	1.313553	1.301099	1.313553
00:00:00.154	1.323810	1.304762	1.307692
00:00:00.154	1.321612	1.317949	1.311355
00:00:00.155	1.317949	1.317949	1.302564
00:00:00.155	1.308425	1.306227	1.296703
00:00:00.155	1.306227	1.306227	1.299634
00:00:00.156	1.315018	1.312088	1.294505
00:00:00.156	1.314286	1.301832	1.282784
00:00:00.156	1.309890	1.315018	1.302564
00:00:00.157	1.304029	1.319414	1.300366
00:00:00.157	1.307692	1.317216	1.306960
00:00:00.158	1.308425	1.331868	1.309158
00:00:00.158	1.301832	1.320879	1.304762
00:00:00.158	1.307692	1.322344	1.315018
00:00:00.159	1.335531	1.331868	1.312088
00:00:00.159	1.339927	1.305495	1.313553
00:00:00.159	1.323077	1.312821	1.312088
00:00:00.160	1.318681	1.378755	1.310623
00:00:00.160	1.297436	1.309158	1.305495
00:00:00.160	1.308425	1.274725	1.309158
00:00:00.161	1.301832	1.219048	1.300366
00:00:00.162	1.287912	1.134066	1.287179
00:00:00.162	1.301832	1.183883	1.287179
00:00:00.162	1.288645	1.257143	1.281319
00:00:00.162	1.292308	1.302564	1.289377
00:00:00.163	1.298901	1.325275	1.298168
00:00:00.163	1.314286	1.375092	1.300366
00:00:00.163	1.326740	1.361905	1.309158
00:00:00.164	1.334799	1.336996	1.307692
00:00:00.164	1.328938	1.317949	1.303297
00:00:00.164	1.332601	1.318681	1.314286
00:00:00.165	1.300366	1.298901	1.294505
00:00:00.165	1.306227	1.300366	1.317216
00:00:00.165	1.305495	1.285714	1.312088
00:00:00.166	1.284249	1.282051	1.294505
00:00:00.166	1.292308	1.298168	1.311355
00:00:00.166	1.282051	1.303297	1.293773
00:00:00.199	1.309158	1.339927	1.295971
00:00:00.199	1.306227	1.365568	1.296703
00:00:00.199	1.309890	1.345055	1.287912
00:00:00.200	1.309890	1.336264	1.295238
00:00:00.200	1.306227	1.334799	1.298901
00:00:00.200	1.295971	1.321612	1.289377
00:00:00.201	1.315751	1.314286	1.310623
00:00:00.201	1.314286	1.255678	1.306960
00:00:00.201	1.314286	1.252015	1.304762
00:00:00.202	1.316484	1.278388	1.312088
00:00:00.202	1.317216	1.288645	1.318681
00:00:00.203	1.312088	1.264469	1.314286
00:00:00.203	1.315751	1.276923	1.314286
00:00:00.203	1.307692	1.282784	1.304029
00:00:00.204	1.325275	1.304029	1.313553
00:00:00.204	1.328205	1.307692	1.312821
00:00:00.204	1.315018	1.290110	1.304762
00:00:00.205	1.314286	1.302564	1.306960
00:00:00.205	1.315751	1.315751	1.303297
00:00:00.205	1.305495	1.334066	1.300366
00:00:00.206	1.317949	1.338462	1.293040
00:00:00.206	1.322344	1.342857	1.293040
00:00:00.206	1.309158	1.339927	1.296703
00:00:00.208	1.312088	1.331136	1.298901
00:00:00.208	1.279853	1.312821	1.287912
00:00:00.208	1.288645	1.283516	1.297436
00:00:00.212	1.300366	1.295971	1.298901
00:00:00.212	1.305495	1.295971	1.312821
00:00:00.212	1.290842	1.293773	1.320147
00:00:00.212	1.284249	1.279121	1.307692
00:00:00.212	1.284249	1.288645	1.314286
00:00:00.212	1.260806	1.315018	1.312088
00:00:00.212	1.280586	1.311355	1.310623
00:00:00.212	1.336264	1.320147	1.302564
00:00:00.212	1.363370	1.315751	1.293773
00:00:00.212	1.400000	1.343590	1.309890
00:00:00.212	1.383883	1.378022	1.302564
00:00:00.212	1.351648	1.380220	1.296703
00:00:00.212	1.307692	1.364835	1.286447
00:00:00.216	1.272527	1.350916	1.298901
00:00:00.216	1.270330	1.337729	1.295238
00:00:00.216	1.303297	1.282051	1.315018
00:00:00.216	1.294505	1.235165	1.309890
00:00:00.216	1.290110	1.188278	1.300366
00:00:00.216	1.309158	1.193407	1.315751
00:00:00.216	1.290110	1.156044	1.297436
00:00:00.216	1.298901	1.224908	1.307692
00:00:00.216	1.320879	1.268864	1.314286
00:00:00.216	1.314286	1.278388	1.298168
00:00:00.216	1.309890	1.339194	1.297436
00:00:00.248	1.301832	1.355311	1.297436
00:00:00.249	1.298168	1.333333	1.288645
00:00:00.249	1.313553	1.337729	1.290110
00:00:00.249	1.309158	1.339194	1.293040
00:00:00.250	1.287912	1.352381	1.293773
00:00:00.250	1.311355	1.359707	1.294505
00:00:00.250	1.315018	1.350183	1.298901
00:00:00.251	1.306227	1.391209	1.300366
00:00:00.251	1.300366	1.380952	1.306960
00:00:00.252	1.286447	1.336264	1.308425
00:00:00.252	1.279853	1.273260	1.315018
00:00:00.252	1.300366	1.234432	1.317216
00:00:00.253	1.329670	1.230037	1.320147
00:00:00.253	1.343590	1.224908	1.321612
00:00:00.253	1.319414	1.234432	1.315018
00:00:00.254	1.306227	1.284249	1.304029
00:00:00.254	1.312821	1.331868	1.295238
00:00:00.254	1.312821	1.300366	1.297436
00:00:00.255	1.309890	1.256410	1.289377
00:00:00.255	1.301832	1.254945	1.280586
00:00:00.255	1.321612	1.279121	1.289377
00:00:00.256	1.323810	1.320879	1.290842
00:00:00.256	1.309158	1.336264	1.297436
00:00:00.257	1.308425	1.347985	1.298168
00:00:00.257	1.312088	1.360440	1.306227
00:00:00.257	1.306960	1.347253	1.309158
00:00:00.258	1.309158	1.329670	1.312821
00:00:00.258	1.310623	1.317949	1.312821
00:00:00.258	1.306960	1.321612	1.322344
00:00:00.259	1.306227	1.318681	1.315018
00:00:00.259	1.292308	1.296703	1.304029
00:00:00.259	1.280586	1.276190	1.301832
00:00:00.260	1.304762	1.290110	1.303297
00:00:00.260	1.311355	1.273260	1.284982
00:00:00.261	1.327473	1.308425	1.298901
00:00:00.261	1.319414	1.326007	1.298168
00:00:00.261	1.319414	1.323810	1.294505
00:00:00.262	1.319414	1.323077	1.297436
00:00:00.262	1.325275	1.306227	1.293040
00:00:00.262	1.313553	1.294505	1.287179
00:00:00.263	1.309158	1.345055	1.300366
00:00:00.263	1.304762	1.323810	1.306960
00:00:00.263	1.292308	1.294505	1.311355
00:00:00.264	1.302564	1.292308	1.302564
00:00:00.264	1.287179	1.279853	1.305495
00:00:00.264	1.304762	1.286447	1.321612
00:00:00.265	1.309158	1.286447	1.317216
00:00:00.265	1.306227	1.300366	1.308425
00:00:00.266	1.309158	1.325275	1.310623
00:00:00.266	1.309890	1.325275	1.304762
00:00:00.298	1.293040	1.302564	1.291575
00:00:00.298	1.326007	1.300366	1.304029
00:00:00.299	1.325275	1.295238	1.300366
00:00:00.299	1.312088	1.298901	1.295971
00:00:00.299	1.321612	1.289377	1.293040
00:00:00.300	1.315751	1.287179	1.290110
00:00:00.300	1.315018	1.311355	1.312088
00:00:00.301	1.311355	1.320879	1.309158
00:00:00.301	1.260073	1.326007	1.300366
00:00:00.301	1.259341	1.347985	1.304762
00:00:00.302	1.285714	1.336264	1.310623
00:00:00.302	1.315751	1.329670	1.303297
00:00:00.302	1.367033	1.300366	1.317949
00:00:00.303	1.381685	1.264469	1.315018
00:00:00.303	1.361172	1.255678	1.315018
00:00:00.303	1.339194	1.313553	1.313553
00:00:00.305	1.304762	1.292308	1.304762
00:00:00.305	1.272527	1.278388	1.303297
00:00:00.305	1.282051	1.259341	1.293040
00:00:00.307	1.288645	1.232967	1.286447
00:00:00.307	1.306227	1.280586	1.289377
00:00:00.307	1.306227	1.299634	1.300366
00:00:00.307	1.293773	1.304762	1.290110
00:00:00.307	1.283516	1.319414	1.300366
00:00:00.307	1.266667	1.310623	1.306960
00:00:00.307	1.273993	1.293773	1.295971
00:00:00.307	1.304029	1.349451	1.306227
00:00:00.309	1.302564	1.402198	1.305495
00:00:00.309	1.307692	1.376557	1.315751
00:00:00.309	1.323810	1.310623	1.319414
00:00:00.309	1.326007	1.271062	1.320147
00:00:00.309	1.312088	1.266667	1.306960
00:00:00.314	1.315751	1.263004	1.304762
00:00:00.314	1.304029	1.269597	1.300366
00:00:00.314	1.311355	1.288645	1.287179
00:00:00.314	1.327473	1.324542	1.297436
00:00:00.314	1.306227	1.340659	1.287912
00:00:00.314	1.322344	1.339194	1.296703
00:00:00.314	1.327473	1.325275	1.285714
00:00:00.314	1.318681	1.293040	1.300366
00:00:00.314	1.311355	1.276923	1.290842
00:00:00.314	1.297436	1.285714	1.292308
00:00:00.314	1.287912	1.293773	1.300366
00:00:00.314	1.282784	1.292308	1.312821
00:00:00.314	1.269597	1.296703	1.308425
00:00:00.314	1.294505	1.323077	1.311355
00:00:00.315	1.320147	1.327473	1.315018
00:00:00.315	1.339927	1.308425	1.309890
00:00:00.315	1.348718	1.298901	1.314286
00:00:00.316	1.334066	1.299634	1.301832
00:00:00.348	1.323810	1.308425	1.308425
00:00:00.348	1.312821	1.314286	1.296703
00:00:00.348	1.317216	1.320879	1.300366
00:00:00.349	1.317949	1.339194	1.299634
00:00:00.349	1.312821	1.319414	1.295238
00:00:00.350	1.302564	1.309158	1.295238
00:00:00.350	1.308425	1.315018	1.300366
00:00:00.350	1.292308	1.306227	1.301832
00:00:00.351	1.295238	1.318681	1.303297
00:00:00.351	1.312821	1.314286	1.304029
00:00:00.351	1.313553	1.292308	1.310623
00:00:00.352	1.306227	1.297436	1.306227
00:00:00.352	1.311355	1.301099	1.309890
00:00:00.352	1.302564	1.277656	1.300366
00:00:00.353	1.298168	1.288645	1.305495
00:00:00.353	1.309890	1.297436	1.300366
00:00:00.353	1.294505	1.300366	1.304762
00:00:00.354	1.307692	1.333333	1.304029
00:00:00.354	1.313553	1.400733	1.296703
00:00:00.355	1.319414	1.381685	1.306960
00:00:00.355	1.319414	1.287179	1.300366
00:00:00.355	1.304029	1.216117	1.297436
00:00:00.356	1.298901	1.200000	1.306227
00:00:00.356	1.312088	1.227839	1.307692
00:00:00.356	1.301832	1.210256	1.290842
00:00:00.357	1.310623	1.228571	1.303297
00:00:00.357	1.309890	1.288645	1.309158
00:00:00.357	1.303297	1.331136	1.298168
00:00:00.358	1.309158	1.339927	1.300366
00:00:00.358	1.300366	1.337729	1.307692
00:00:00.359	1.304762	1.337729	1.315018
00:00:00.359	1.324542	1.331868	1.309890
00:00:00.359	1.310623	1.313553	1.300366
00:00:00.360	1.320147	1.315018	1.309158
00:00:00.360	1.326007	1.319414	1.302564
00:00:00.360	1.317216	1.313553	1.302564
00:00:00.361	1.320879	1.320879	1.298901
00:00:00.361	1.327473	1.319414	1.297436
00:00:00.361	1.323810	1.323077	1.282784
00:00:00.362	1.327473	1.367766	1.304029
00:00:00.362	1.314286	1.345055	1.289377
00:00:00.362	1.290110	1.318681	1.296703
00:00:00.363	1.274725	1.287179	1.291575
00:00:00.363	1.275458	1.290110	1.306960
00:00:00.364	1.244689	1.302564	1.315751
00:00:00.364	1.254212	1.298901	1.320147
00:00:00.364	1.268864	1.259341	1.298901
00:00:00.365	1.311355	1.269597	1.317949
00:00:00.365	1.337729	1.248352	1.303297
00:00:00.365	1.371429	1.264469	1.307692
00:00:00.397	1.375092	1.290842	1.304029
00:00:00.398	1.344322	1.306960	1.304762
00:00:00.398	1.298901	1.331868	1.305495
00:00:00.399	1.274725	1.356044	1.300366
00:00:00.399	1.304029	1.344322	1.296703
00:00:00.399	1.312821	1.322344	1.292308
00:00:00.400	1.323810	1.320147	1.306960
00:00:00.400	1.316484	1.312821	1.300366
00:00:00.400	1.315018	1.302564	1.301832
00:00:00.405	1.308425	1.296703	1.304029
00:00:00.405	1.299634	1.303297	1.313553
00:00:00.405	1.310623	1.306960	1.321612
00:00:00.405	1.315751	1.305495	1.323077
00:00:00.405	1.303297	1.292308	1.304029
00:00:00.405	1.319414	1.303297	1.311355
00:00:00.405	1.317949	1.289377	1.309158
00:00:00.405	1.315018	1.287912	1.304029
00:00:00.405	1.289377	1.297436	1.294505
00:00:00.405	1.300366	1.305495	1.295238
00:00:00.405	1.306960	1.312821	1.300366
00:00:00.405	1.292308	1.307692	1.295971
00:00:00.405	1.305495	1.318681	1.296703
00:00:00.405	1.309158	1.320879	1.298901
00:00:00.409	1.304029	1.309890	1.292308
00:00:00.409	1.317216	1.323810	1.309890
00:00:00.409	1.309890	1.315751	1.304029
00:00:00.409	1.306960	1.306227	1.304029
00:00:00.409	1.311355	1.318681	1.300366
00:00:00.409	1.300366	1.309890	1.304762
00:00:00.409	1.298168	1.293773	1.309890
00:00:00.409	1.310623	1.263736	1.306960
00:00:00.409	1.297436	1.271062	1.332601
00:00:00.409	1.319414	1.279853	1.327473
00:00:00.409	1.332601	1.276190	1.309890
00:00:00.410	1.320147	1.282051	1.304762
00:00:00.410	1.312088	1.309158	1.308425
00:00:00.410	1.312088	1.315751	1.297436
00:00:00.411	1.316484	1.328938	1.295238
00:00:00.411	1.310623	1.327473	1.287912
00:00:00.411	1.306960	1.331136	1.290110
00:00:00.412	1.296703	1.331868	1.300366
00:00:00.412	1.297436	1.329670	1.295238
00:00:00.413	1.296703	1.325275	1.304029
00:00:00.413	1.298901	1.307692	1.330403
00:00:00.413	1.304029	1.293773	1.328938
00:00:00.414	1.328205	1.301832	1.326007
00:00:00.414	1.321612	1.297436	1.310623
00:00:00.414	1.320879	1.298901	1.313553
00:00:00.415	1.306960	1.283516	1.295238
00:00:00.415	1.296703	1.277656	1.318681
00:00:00.447	1.307692	1.291575	1.295238
00:00:00.448	1.323810	1.297436	1.253480
00:00:00.448	1.329670	1.307692	1.256410
00:00:00.448	1.317949	1.306227	1.265934
00:00:00.449	1.311355	1.309890	1.294505
00:00:00.449	1.305495	1.316484	1.298901
00:00:00.449	1.304029	1.301832	1.288645
00:00:00.450	1.301832	1.304029	1.291575
00:00:00.450	1.299634	1.304029	1.309158
00:00:00.450	1.304029	1.315751	1.322344
00:00:00.451	1.282784	1.291575	1.304762
00:00:00.451	1.301099	1.297436	1.306227
00:00:00.452	1.300366	1.295238	1.301832
00:00:00.452	1.312088	1.299634	1.313553
00:00:00.452	1.311355	1.304762	1.314286
00:00:00.453	1.249817	1.304029	1.313553
00:00:00.453	1.268132	1.298168	1.290842
00:00:00.453	1.298901	1.296703	1.312821
00:00:00.454	1.338462	1.305495	1.321612
00:00:00.455	1.373626	1.308425	1.308425
00:00:00.455	1.380952	1.311355	1.309890
00:00:00.455	1.379487	1.317216	1.335531
00:00:00.455	1.325275	1.312088	1.339927
00:00:00.455	1.250549	1.299634	1.300366
00:00:00.456	1.256410	1.312821	1.289377
00:00:00.456	1.284982	1.306227	1.284249
00:00:00.457	1.301099	1.312821	1.298901
00:00:00.457	1.315018	1.308425	1.307692
00:00:00.457	1.312088	1.293040	1.296703
00:00:00.458	1.318681	1.295971	1.312088
00:00:00.458	1.314286	1.295238	1.312088
00:00:00.458	1.298901	1.288645	1.307692
00:00:00.459	1.306227	1.285714	1.297436
00:00:00.459	1.304762	1.299634	1.295238
00:00:00.459	1.299634	1.303297	1.301832
00:00:00.460	1.299634	1.299634	1.298901
00:00:00.460	1.301099	1.304029	1.287912
00:00:00.460	1.303297	1.304762	1.287912
00:00:00.461	1.310623	1.312821	1.296703
00:00:00.461	1.304762	1.295971	1.278388
00:00:00.462	1.317949	1.308425	1.297436
00:00:00.462	1.316484	1.306960	1.298168
00:00:00.462	1.316484	1.307692	1.304029
00:00:00.464	1.317949	1.304029	1.310623
00:00:00.464	1.323077	1.312088	1.311355
00:00:00.464	1.306227	1.307692	1.317949
00:00:00.465	1.300366	1.299634	1.312821
00:00:00.465	1.299634	1.303297	1.313553
00:00:00.465	1.297436	1.295971	1.298901
00:00:00.465	1.305495	1.309158	1.310623
00:00:00.499	1.309890	1.323810	1.310623
00:00:00.499	1.313553	1.331868	1.300366
00:00:00.499	1.319414	1.324542	1.300366
00:00:00.499	1.306227	1.311355	1.291575
00:00:00.499	1.312821	1.304029	1.291575
00:00:00.499	1.321612	1.314286	1.295971
00:00:00.499	1.328205	1.315751	1.295971
00:00:00.499	1.312088	1.304762	1.309158
00:00:00.500	1.314286	1.275458	1.307692
00:00:00.500	1.301832	1.263736	1.300366
00:00:00.501	1.307692	1.287912	1.315018
00:00:00.501	1.309158	1.299634	1.317949
00:00:00.501	1.317949	1.293773	1.307692
00:00:00.506	1.318681	1.298901	1.320879
00:00:00.506	1.323077	1.313553	1.312088
00:00:00.506	1.317216	1.320879	1.316484
00:00:00.506	1.301099	1.295238	1.310623
00:00:00.506	1.304029	1.282784	1.309158
00:00:00.506	1.297436	1.269597	1.293040
00:00:00.506	1.300366	1.291575	1.299634
00:00:00.506	1.293040	1.305495	1.300366
00:00:00.506	1.302564	1.312088	1.293773
00:00:00.506	1.312088	1.317949	1.296703
00:00:00.506	1.311355	1.328938	1.299634
00:00:00.506	1.300366	1.323077	1.295971
00:00:00.506	1.295971	1.309158	1.293773
00:00:00.507	1.304762	1.319414	1.293773
00:00:00.507	1.294505	1.301832	1.284249
00:00:00.507	1.298168	1.299634	1.300366
00:00:00.507	1.304029	1.302564	1.310623
00:00:00.508	1.312088	1.304029	1.346520
00:00:00.508	1.301832	1.291575	1.323810
00:00:00.508	1.309158	1.298168	1.308425
00:00:00.509	1.310623	1.299634	1.314286
00:00:00.509	1.320147	1.304029	1.309158
00:00:00.509	1.323810	1.298901	1.291575
00:00:00.510	1.323077	1.306960	1.293040
00:00:00.510	1.329670	1.316484	1.295971
00:00:00.511	1.316484	1.309158	1.283516
00:00:00.511	1.323810	1.321612	1.291575
00:00:00.511	1.314286	1.315018	1.284982
00:00:00.512	1.304029	1.305495	1.287912
00:00:00.512	1.311355	1.306960	1.305495
00:00:00.512	1.320879	1.307692	1.304762
00:00:00.513	1.313553	1.303297	1.290110
00:00:00.513	1.322344	1.307692	1.308425
00:00:00.513	1.312821	1.296703	1.331868
00:00:00.514	1.300366	1.291575	1.322344
00:00:00.514	1.306227	1.298168	1.317216
00:00:00.514	1.301099	1.298168	1.309158
00:00:00.547	1.297436	1.310623	1.315018
00:00:00.547	1.287179	1.312088	1.302564
00:00:00.547	1.291575	1.284982	1.284982
00:00:00.548	1.306960	1.310623	1.305495
00:00:00.548	1.319414	1.314286	1.295971
00:00:00.548	1.305495	1.317216	1.296703
00:00:00.549	1.312088	1.328205	1.302564
00:00:00.549	1.310623	1.324542	1.295971
00:00:00.550	1.309158	1.319414	1.303297
00:00:00.550	1.306960	1.317216	1.306960
00:00:00.550	1.302564	1.298168	1.298168
00:00:00.551	1.323810	1.306227	1.310623
00:00:00.551	1.312821	1.300366	1.307692
00:00:00.551	1.308425	1.287912	1.311355
00:00:00.552	1.297436	1.282051	1.309890
00:00:00.552	1.298168	1.271795	1.312821
00:00:00.552	1.298168	1.274725	1.295971
00:00:00.553	1.299634	1.298901	1.308425
00:00:00.553	1.311355	1.306227	1.303297
00:00:00.553	1.300366	1.304029	1.297436
00:00:00.554	1.300366	1.313553	1.293040
00:00:00.554	1.315751	1.315751	1.289377
00:00:00.555	1.314286	1.321612	1.300366
00:00:00.555	1.317949	1.320147	1.298901
00:00:00.555	1.329670	1.312088	1.308425
00:00:00.556	1.326740	1.312088	1.306227
00:00:00.556	1.318681	1.315751	1.301832
00:00:00.556	1.296703	1.301099	1.298168
00:00:00.557	1.309890	1.308425	1.311355
00:00:00.557	1.309158	1.298901	1.315018
00:00:00.557	1.265201	1.296703	1.313553
00:00:00.558	1.259341	1.292308	1.315018
00:00:00.560	1.293773	1.290842	1.306960
00:00:00.562	1.329670	1.296703	1.313553
00:00:00.562	1.350916	1.293773	1.306227
00:00:00.562	1.370696	1.294505	1.298901
00:00:00.562	1.372894	1.312088	1.300366
00:00:00.562	1.339927	1.321612	1.303297
00:00:00.562	1.293040	1.318681	1.297436
00:00:00.562	1.261538	1.306960	1.290842
00:00:00.562	1.279853	1.311355	1.293773
00:00:00.562	1.291575	1.311355	1.298168
00:00:00.563	1.300366	1.315018	1.290842
00:00:00.563	1.317216	1.334066	1.312088
00:00:00.563	1.316484	1.317949	1.307692
00:00:00.563	1.294505	1.294505	1.302564
00:00:00.564	1.317216	1.295238	1.315751
00:00:00.564	1.300366	1.287912	1.300366
00:00:00.564	1.296703	1.286447	1.308425
00:00:00.564	1.305495	1.292308	1.300366
00:00:00.597	1.298901	1.286447	1.285714
00:00:00.597	1.315751	1.303297	1.293040
00:00:00.597	1.309158	1.314286	1.280586
00:00:00.597	1.306227	1.313553	1.282784
00:00:00.603	1.323810	1.323077	1.390476
00:00:00.603	1.299634	1.298901	1.346520
00:00:00.603	1.307692	1.304029	1.303297
00:00:00.603	1.321612	1.310623	1.315018
00:00:00.603	1.311355	1.310623	1.273993
00:00:00.603	1.306227	1.306227	1.271062
00:00:00.603	1.304029	1.306960	1.291575
00:00:00.603	1.306227	1.306227	1.298901
00:00:00.603	1.309890	1.303297	1.296703
00:00:00.603	1.300366	1.296703	1.302564
00:00:00.603	1.306227	1.301099	1.315018
00:00:00.603	1.306960	1.293773	1.312088
00:00:00.603	1.313553	1.291575	1.312821
00:00:00.603	1.315751	1.300366	1.312821
00:00:00.603	1.308425	1.300366	1.303297
00:00:00.603	1.304029	1.304029	1.294505
00:00:00.604	1.312821	1.310623	1.298901
00:00:00.604	1.320147	1.309158	1.291575
00:00:00.604	1.327473	1.310623	1.300366
00:00:00.605	1.317949	1.317216	1.297436
00:00:00.605	1.304029	1.315018	1.300366
00:00:00.605	1.312088	1.326007	1.309158
00:00:00.606	1.304762	1.312821	1.298168
00:00:00.606	1.300366	1.294505	1.295238
00:00:00.606	1.310623	1.306227	1.309890
00:00:00.607	1.305495	1.297436	1.316484
00:00:00.607	1.306227	1.301099	1.317216
00:00:00.607	1.308425	1.284249	1.313553
00:00:00.608	1.293773	1.279853	1.309890
00:00:00.608	1.304762	1.295238	1.311355
00:00:00.609	1.305495	1.295238	1.300366
00:00:00.609	1.303297	1.288645	1.301832
00:00:00.609	1.322344	1.296703	1.298168
00:00:00.610	1.318681	1.295238	1.295971
00:00:00.610	1.300366	1.296703	1.297436
00:00:00.611	1.320879	1.308425	1.298168
00:00:00.611	1.306227	1.308425	1.286447
00:00:00.611	1.321612	1.323810	1.297436
00:00:00.611	1.306227	1.315018	1.295971
00:00:00.612	1.300366	1.319414	1.309890
00:00:00.612	1.306227	1.316484	1.304029
00:00:00.612	1.306227	1.317216	1.312088
00:00:00.613	1.315018	1.319414	1.318681
00:00:00.613	1.304762	1.312821	1.312821
00:00:00.614	1.293040	1.290842	1.311355
00:00:00.614	1.323077	1.302564	1.317949
00:00:00.646	1.317216	1.311355	1.308425
00:00:00.646	1.317949	1.309158	1.300366
00:00:00.647	1.309890	1.301099	1.303297
00:00:00.647	1.309890	1.300366	1.296703
00:00:00.648	1.319414	1.319414	1.306227
00:00:00.648	1.313553	1.315751	1.300366
00:00:00.648	1.304762	1.317949	1.295238
00:00:00.649	1.317949	1.344322	1.298168
00:00:00.649	1.306227	1.298168	1.284249
00:00:00.649	1.314286	1.293040	1.306227
00:00:00.650	1.298901	1.289377	1.306227
00:00:00.650	1.301099	1.294505	1.309890
00:00:00.650	1.304029	1.309158	1.320879
00:00:00.651	1.311355	1.300366	1.319414
00:00:00.651	1.303297	1.265201	1.314286
00:00:00.651	1.301832	1.239560	1.293040
00:00:00.652	1.291575	1.251282	1.293773
00:00:00.652	1.289377	1.277656	1.302564
00:00:00.653	1.308425	1.310623	1.304029
00:00:00.653	1.298901	1.309158	1.292308
00:00:00.653	1.315751	1.330403	1.306960
00:00:00.654	1.324542	1.323810	1.298901
00:00:00.654	1.320147	1.315018	1.287912
00:00:00.654	1.320147	1.324542	1.295238
00:00:00.655	1.315751	1.313553	1.288645
00:00:00.655	1.317949	1.319414	1.298168
00:00:00.655	1.307692	1.313553	1.300366
00:00:00.657	1.306227	1.312088	1.307692
00:00:00.657	1.305495	1.306960	1.306227
00:00:00.657	1.298901	1.299634	1.302564
00:00:00.658	1.290842	1.285714	1.297436
00:00:00.658	1.301832	1.305495	1.315018
00:00:00.658	1.297436	1.298901	1.331136
00:00:00.658	1.306227	1.308425	1.345055
00:00:00.658	1.317216	1.308425	1.317216
00:00:00.660	1.312821	1.302564	1.293040
00:00:00.660	1.308425	1.304762	1.296703
00:00:00.660	1.317949	1.320879	1.295238
00:00:00.661	1.320147	1.345055	1.293773
00:00:00.661	1.319414	1.359707	1.303297
00:00:00.661	1.312088	1.356044	1.299634
00:00:00.661	1.304029	1.334799	1.288645
00:00:00.661	1.316484	1.317216	1.307692
00:00:00.661	1.312821	1.270330	1.307692
00:00:00.666	1.306227	1.250549	1.304029
00:00:00.666	1.312088	1.263736	1.317949
00:00:00.666	1.309890	1.256410	1.309890
00:00:00.666	1.327473	1.264469	1.318681
00:00:00.666	1.315018	1.273260	1.312088
00:00:00.666	1.309890	1.282051	1.304762
00:00:00.698	1.271062	1.302564	1.317949
00:00:00.698	1.268864	1.312088	1.312821
00:00:00.698	1.287912	1.295971	1.299634
00:00:00.698	1.327473	1.316484	1.310623
00:00:00.698	1.334066	1.312821	1.268864
00:00:00.698	1.353846	1.322344	1.279853
00:00:00.698	1.328938	1.321612	1.273993
00:00:00.698	1.315018	1.328205	1.287912
00:00:00.699	1.298901	1.331868	1.306227
00:00:00.699	1.271795	1.322344	1.332601
00:00:00.699	1.279121	1.311355	1.336264
00:00:00.700	1.304029	1.309890	1.323810
00:00:00.700	1.306227	1.307692	1.322344
00:00:00.700	1.304029	1.306227	1.322344
00:00:00.701	1.304762	1.301099	1.303297
00:00:00.701	1.297436	1.299634	1.295971
00:00:00.702	1.317216	1.297436	1.295971
00:00:00.702	1.310623	1.306227	1.283516
00:00:00.702	1.312821	1.307692	1.294505
00:00:00.703	1.315751	1.297436	1.299634
00:00:00.703	1.311355	1.294505	1.315018
00:00:00.703	1.315018	1.306960	1.314286
00:00:00.704	1.314286	1.310623	1.319414
00:00:00.704	1.317216	1.318681	1.320879
00:00:00.704	1.315018	1.320147	1.306960
00:00:00.705	1.303297	1.305495	1.299634
00:00:00.705	1.307692	1.307692	1.311355
00:00:00.705	1.304762	1.298901	1.279853
00:00:00.706	1.312088	1.304762	1.284982
00:00:00.706	1.320147	1.311355	1.283516
00:00:00.707	1.317216	1.323810	1.312088
00:00:00.707	1.312088	1.324542	1.338462
00:00:00.707	1.303297	1.309158	1.320879
00:00:00.708	1.305495	1.279853	1.304029
00:00:00.708	1.311355	1.282051	1.315751
00:00:00.708	1.305495	1.282051	1.306227
00:00:00.709	1.313553	1.287179	1.298901
00:00:00.709	1.313553	1.289377	1.287912
00:00:00.709	1.301832	1.305495	1.281319
00:00:00.710	1.315018	1.334799	1.288645
00:00:00.710	1.310623	1.352381	1.275458
00:00:00.711	1.319414	1.344322	1.296703
00:00:00.711	1.309158	1.309890	1.305495
00:00:00.711	1.289377	1.283516	1.300366
00:00:00.712	1.301832	1.282051	1.298901
00:00:00.712	1.313553	1.306227	1.306960
00:00:00.712	1.306227	1.322344	1.322344
00:00:00.713	1.300366	1.304029	1.330403
00:00:00.713	1.285714	1.269597	1.309890
00:00:00.713	1.298168	1.272527	1.320147
00:00:00.746	1.312088	1.279121	1.317216
00:00:00.746	1.316484	1.313553	1.323810
00:00:00.746	1.312088	1.306960	1.313553
00:00:00.747	1.317949	1.282784	1.294505
00:00:00.747	1.339194	1.300366	1.303297
00:00:00.747	1.344322	1.323810	1.282051
00:00:00.748	1.315751	1.328205	1.290110
00:00:00.748	1.296703	1.316484	1.269597
00:00:00.748	1.291575	1.303297	1.271795
00:00:00.749	1.295238	1.305495	1.279853
00:00:00.749	1.310623	1.313553	1.291575
00:00:00.749	1.312821	1.315751	1.319414
00:00:00.752	1.301099	1.263736	1.308425
00:00:00.752	1.301832	1.245421	1.287179
00:00:00.752	1.301832	1.265934	1.293773
00:00:00.752	1.309890	1.278388	1.331136
00:00:00.752	1.307692	1.293773	1.333333
00:00:00.752	1.293773	1.282784	1.316484
00:00:00.752	1.308425	1.315018	1.305495
00:00:00.752	1.317216	1.346520	1.301832
00:00:00.754	1.309158	1.368498	1.298168
00:00:00.754	1.314286	1.377289	1.295238
00:00:00.754	1.323810	1.373626	1.300366
00:00:00.754	1.321612	1.357509	1.306960
00:00:00.755	1.315018	1.338462	1.306227
00:00:00.755	1.310623	1.301099	1.301832
00:00:00.755	1.317216	1.266667	1.305495
00:00:00.755	1.306227	1.283516	1.300366
00:00:00.760	1.314286	1.312088	1.320879
00:00:00.760	1.309158	1.301099	1.309890
00:00:00.760	1.315018	1.306960	1.314286
00:00:00.760	1.315751	1.297436	1.317216
00:00:00.760	1.309890	1.284982	1.306960
00:00:00.760	1.309158	1.290842	1.310623
00:00:00.760	1.313553	1.284982	1.312821
00:00:00.760	1.313553	1.289377	1.307692
00:00:00.760	1.296703	1.276190	1.300366
00:00:00.760	1.304029	1.279121	1.301832
00:00:00.760	1.309158	1.284249	1.294505
00:00:00.760	1.321612	1.303297	1.300366
00:00:00.760	1.315751	1.305495	1.288645
00:00:00.760	1.305495	1.309158	1.288645
00:00:00.761	1.296703	1.305495	1.299634
00:00:00.761	1.302564	1.300366	1.301832
00:00:00.761	1.304762	1.294505	1.304762
00:00:00.762	1.308425	1.296703	1.310623
00:00:00.762	1.301832	1.300366	1.307692
00:00:00.762	1.302564	1.308425	1.309890
00:00:00.763	1.304029	1.311355	1.312821
00:00:00.763	1.298901	1.307692	1.316484
00:00:00.795	1.315751	1.315751	1.315751
00:00:00.796	1.315751	1.313553	1.309890
00:00:00.796	1.310623	1.298901	1.300366
00:00:00.796	1.320147	1.312821	1.301832
00:00:00.797	1.323077	1.318681	1.298901
00:00:00.797	1.319414	1.332601	1.298901
00:00:00.797	1.309158	1.315018	1.288645
00:00:00.798	1.326007	1.320879	1.293773
00:00:00.798	1.326007	1.320879	1.296703
00:00:00.798	1.309890	1.317949	1.300366
00:00:00.800	1.303297	1.306960	1.298901
00:00:00.800	1.275458	1.301832	1.303297
00:00:00.800	1.281319	1.297436	1.314286
00:00:00.800	1.270330	1.284249	1.299634
00:00:00.800	1.284982	1.298168	1.297436
00:00:00.801	1.304762	1.303297	1.312821
00:00:00.801	1.298901	1.296703	1.311355
00:00:00.801	1.324542	1.315018	1.316484
00:00:00.802	1.326007	1.282051	1.310623
00:00:00.802	1.314286	1.243223	1.303297
00:00:00.802	1.325275	1.247619	1.299634
00:00:00.803	1.315751	1.265934	1.285714
00:00:00.803	1.309158	1.315018	1.299634
00:00:00.803	1.317949	1.337729	1.300366
00:00:00.804	1.312088	1.344322	1.295238
00:00:00.804	1.315751	1.337729	1.300366
00:00:00.805	1.315018	1.322344	1.294505
00:00:00.805	1.316484	1.319414	1.300366
00:00:00.805	1.317949	1.313553	1.315018
00:00:00.806	1.306227	1.296703	1.303297
00:00:00.806	1.311355	1.308425	1.313553
00:00:00.806	1.300366	1.321612	1.312088
00:00:00.807	1.298901	1.311355	1.316484
00:00:00.807	1.303297	1.298901	1.313553
00:00:00.807	1.303297	1.298901	1.315751
00:00:00.808	1.312821	1.310623	1.315018
00:00:00.808	1.310623	1.329670	1.302564
00:00:00.809	1.305495	1.307692	1.306227
00:00:00.809	1.315751	1.290842	1.300366
00:00:00.809	1.316484	1.306227	1.297436
00:00:00.810	1.310623	1.323810	1.297436
00:00:00.810	1.312088	1.327473	1.297436
00:00:00.810	1.304029	1.306227	1.292308
00:00:00.811	1.314286	1.314286	1.300366
00:00:00.811	1.305495	1.285714	1.295971
00:00:00.811	1.303297	1.251282	1.308425
00:00:00.812	1.304762	1.223443	1.306960
00:00:00.812	1.295971	1.218315	1.294505
00:00:00.812	1.308425	1.250549	1.312821
00:00:00.813	1.314286	1.297436	1.308425
00:00:00.845	1.295238	1.340659	1.306227
00:00:00.845	1.308425	1.361172	1.312088
00:00:00.846	1.309158	1.345788	1.299634
00:00:00.846	1.312821	1.327473	1.306960
00:00:00.846	1.312088	1.324542	1.304029
00:00:00.850	1.309158	1.309890	1.285714
00:00:00.850	1.328205	1.293040	1.290842
00:00:00.850	1.319414	1.290842	1.291575
00:00:00.850	1.320147	1.290842	1.290842
00:00:00.850	1.323077	1.322344	1.295238
00:00:00.850	1.314286	1.334799	1.302564
00:00:00.850	1.289377	1.343590	1.310623
00:00:00.850	1.295238	1.352381	1.318681
00:00:00.851	1.288645	1.303297	1.307692
00:00:00.851	1.295971	1.283516	1.300366
00:00:00.851	1.301832	1.275458	1.299634
00:00:00.851	1.302564	1.274725	1.306227
00:00:00.853	1.298168	1.268864	1.308425
00:00:00.853	1.295971	1.270330	1.296703
00:00:00.853	1.311355	1.288645	1.306227
00:00:00.853	1.315751	1.309890	1.299634
00:00:00.853	1.323077	1.315018	1.304029
00:00:00.853	1.322344	1.321612	1.299634
00:00:00.853	1.311355	1.315751	1.286447
00:00:00.858	1.307692	1.314286	1.295238
00:00:00.858	1.312821	1.293773	1.295238
00:00:00.858	1.306960	1.282051	1.290110
00:00:00.858	1.308425	1.289377	1.295971
00:00:00.858	1.317949	1.303297	1.298901
00:00:00.858	1.317949	1.312088	1.306960
00:00:00.858	1.309158	1.304762	1.309890
00:00:00.858	1.295971	1.295971	1.302564
00:00:00.858	1.304762	1.316484	1.312821
00:00:00.858	1.307692	1.310623	1.310623
00:00:00.858	1.301832	1.295971	1.300366
00:00:00.858	1.311355	1.312821	1.309890
00:00:00.858	1.311355	1.305495	1.308425
00:00:00.858	1.303297	1.309158	1.300366
00:00:00.859	1.309158	1.312088	1.302564
00:00:00.859	1.310623	1.320147	1.300366
00:00:00.859	1.323077	1.338462	1.300366
00:00:00.860	1.320879	1.326007	1.295238
00:00:00.860	1.312088	1.327473	1.293040
00:00:00.860	1.320147	1.331868	1.304029
00:00:00.861	1.314286	1.328205	1.302564
00:00:00.861	1.307692	1.323077	1.309158
00:00:00.861	1.304762	1.304029	1.309158
00:00:00.862	1.295971	1.274725	1.306227
00:00:00.862	1.307692	1.274725	1.315018
00:00:00.863	1.307692	1.297436	1.317949
