timestamp	ch1	ch2	ch3
00:00:00.000	1.299634	1.347253	1.299634
00:00:00.000	1.276190	1.334066	1.298901
00:00:00.000	1.293040	1.352381	1.306227
00:00:00.001	1.306227	1.344322	1.310623
00:00:00.001	1.317216	1.321612	1.306227
00:00:00.002	1.310623	1.304762	1.294505
00:00:00.002	1.309158	1.273993	1.289377
00:00:00.002	1.320879	1.265201	1.304029
00:00:00.003	1.312821	1.239560	1.306960
00:00:00.003	1.301099	1.282784	1.307692
00:00:00.003	1.300366	1.312088	1.309158
00:00:00.004	1.279853	1.302564	1.300366
00:00:00.004	1.307692	1.277656	1.309158
00:00:00.004	1.317949	1.252747	1.311355
00:00:00.005	1.331136	1.254945	1.293040
00:00:00.005	1.320879	1.282051	1.302564
00:00:00.005	1.304762	1.284982	1.291575
00:00:00.006	1.313553	1.315018	1.297436
00:00:00.006	1.306227	1.336996	1.307692
00:00:00.007	1.308425	1.351648	1.298168
00:00:00.007	1.316484	1.349451	1.297436
00:00:00.007	1.293773	1.344322	1.310623
00:00:00.008	1.253480	1.372161	1.312821
00:00:00.008	1.279853	1.383883	1.300366
00:00:00.008	1.319414	1.322344	1.312821
00:00:00.009	1.347253	1.309158	1.309158
00:00:00.009	1.337729	1.306227	1.309890
00:00:00.009	1.342125	1.281319	1.315018
00:00:00.010	1.311355	1.281319	1.314286
00:00:00.010	1.301099	1.249817	1.309158
00:00:00.011	1.294505	1.243956	1.304762
00:00:00.011	1.288645	1.221245	1.292308
00:00:00.011	1.327473	1.267399	1.300366
00:00:00.012	1.312821	1.297436	1.289377
00:00:00.012	1.301832	1.300366	1.300366
00:00:00.012	1.306960	1.291575	1.295238
00:00:00.013	1.302564	1.327473	1.299634
00:00:00.013	1.308425	1.330403	1.306960
00:00:00.013	1.300366	1.312821	1.290110
00:00:00.014	1.301832	1.327473	1.307692
00:00:00.014	1.304029	1.318681	1.318681
00:00:00.015	1.291575	1.291575	1.303297
00:00:00.015	1.349451	1.325275	1.315018
00:00:00.015	1.340659	1.326740	1.309158
00:00:00.016	1.303297	1.349451	1.306227
00:00:00.016	1.276190	1.324542	1.295971
00:00:00.016	1.284982	1.309890	1.309158
00:00:00.018	1.301832	1.300366	1.300366
00:00:00.018	1.337729	1.297436	1.306960
00:00:00.018	1.357509	1.290110	1.298901
00:00:00.049	1.369963	1.276190	1.304762
00:00:00.050	1.339927	1.276190	1.298168
00:00:00.050	1.302564	1.310623	1.290110
00:00:00.051	1.278388	1.328205	1.295238
00:00:00.051	1.303297	1.306227	1.303297
00:00:00.051	1.307692	1.305495	1.303297
00:00:00.053	1.295971	1.314286	1.318681
00:00:00.053	1.285714	1.304762	1.309158
00:00:00.053	1.280586	1.306960	1.307692
00:00:00.053	1.284982	1.312088	1.314286
00:00:00.053	1.311355	1.310623	1.316484
00:00:00.053	1.334066	1.299634	1.311355
00:00:00.054	1.327473	1.295971	1.298901
00:00:00.054	1.331868	1.312088	1.316484
00:00:00.054	1.320879	1.312088	1.306960
00:00:00.056	1.363370	1.322344	1.308425
00:00:00.056	1.356044	1.317949	1.293773
00:00:00.056	1.318681	1.315018	1.285714
00:00:00.056	1.295971	1.316484	1.295238
00:00:00.056	1.314286	1.312088	1.290110
00:00:00.060	1.281319	1.306227	1.293773
00:00:00.060	1.276923	1.316484	1.300366
00:00:00.060	1.250549	1.293040	1.303297
00:00:00.060	1.255678	1.279853	1.303297
00:00:00.060	1.266667	1.284982	1.306227
00:00:00.060	1.293040	1.299634	1.312088
00:00:00.060	1.309890	1.310623	1.316484
00:00:00.060	1.312821	1.297436	1.302564
00:00:00.060	1.320879	1.312088	1.312821
00:00:00.060	1.323810	1.306960	1.306227
00:00:00.060	1.304762	1.284249	1.297436
00:00:00.061	1.318681	1.304762	1.300366
00:00:00.061	1.320879	1.302564	1.300366
00:00:00.061	1.324542	1.292308	1.290842
00:00:00.062	1.322344	1.291575	1.295238
00:00:00.062	1.316484	1.296703	1.301832
00:00:00.062	1.327473	1.315018	1.293773
00:00:00.063	1.331868	1.306960	1.297436
00:00:00.063	1.337729	1.320879	1.308425
00:00:00.063	1.304762	1.317216	1.307692
00:00:00.064	1.287912	1.317216	1.304029
00:00:00.064	1.269597	1.308425	1.312088
00:00:00.065	1.282051	1.293773	1.308425
00:00:00.065	1.293773	1.284249	1.302564
00:00:00.065	1.328205	1.291575	1.317949
00:00:00.066	1.338462	1.294505	1.300366
00:00:00.066	1.334066	1.312821	1.311355
00:00:00.066	1.317216	1.300366	1.306227
00:00:00.067	1.288645	1.291575	1.293773
00:00:00.067	1.276923	1.307692	1.306960
00:00:00.099	1.292308	1.322344	1.300366
00:00:00.100	1.301832	1.313553	1.290110
00:00:00.100	1.314286	1.312821	1.298901
00:00:00.100	1.313553	1.317949	1.297436
00:00:00.101	1.301832	1.309158	1.300366
00:00:00.101	1.312088	1.309890	1.298901
00:00:00.101	1.331136	1.316484	1.297436
00:00:00.102	1.312088	1.306960	1.307692
00:00:00.102	1.320879	1.274725	1.298901
00:00:00.102	1.318681	1.291575	1.300366
00:00:00.103	1.300366	1.360440	1.308425
00:00:00.103	1.304029	1.385348	1.307692
00:00:00.104	1.297436	1.383150	1.307692
00:00:00.104	1.306227	1.335531	1.304762
00:00:00.104	1.309890	1.254945	1.300366
00:00:00.105	1.315751	1.219048	1.304762
00:00:00.105	1.317949	1.203663	1.300366
00:00:00.105	1.318681	1.209524	1.298901
00:00:00.106	1.328205	1.257143	1.303297
00:00:00.106	1.320879	1.273993	1.297436
00:00:00.106	1.297436	1.273260	1.295238
00:00:00.107	1.325275	1.325275	1.304029
00:00:00.107	1.298168	1.323810	1.302564
00:00:00.107	1.272527	1.318681	1.304762
00:00:00.108	1.284249	1.326740	1.304762
00:00:00.108	1.280586	1.342125	1.317216
00:00:00.109	1.303297	1.328938	1.319414
00:00:00.109	1.331868	1.315018	1.306960
00:00:00.109	1.339927	1.305495	1.309890
00:00:00.110	1.348718	1.342125	1.306227
00:00:00.110	1.300366	1.364103	1.297436
00:00:00.110	1.267399	1.347253	1.308425
00:00:00.112	1.277656	1.295238	1.300366
00:00:00.112	1.319414	1.280586	1.293040
00:00:00.112	1.345055	1.306960	1.300366
00:00:00.112	1.357509	1.317216	1.300366
00:00:00.112	1.341392	1.292308	1.291575
00:00:00.112	1.320879	1.249817	1.295238
00:00:00.113	1.309158	1.251282	1.302564
00:00:00.114	1.301832	1.278388	1.305495
00:00:00.114	1.288645	1.275458	1.305495
00:00:00.114	1.283516	1.290110	1.296703
00:00:00.114	1.284249	1.311355	1.316484
00:00:00.116	1.282051	1.311355	1.306960
00:00:00.116	1.295238	1.302564	1.300366
00:00:00.116	1.296703	1.331136	1.314286
00:00:00.116	1.298168	1.327473	1.314286
00:00:00.117	1.303297	1.328938	1.309158
00:00:00.117	1.313553	1.323810	1.309158
00:00:00.117	1.304762	1.290842	1.290842
00:00:00.149	1.302564	1.293773	1.287179
00:00:00.149	1.317216	1.310623	1.296703
00:00:00.154	1.320147	1.306960	1.295238
00:00:00.154	1.331136	1.326007	1.304762
00:00:00.154	1.331868	1.331868	1.302564
00:00:00.154	1.304029	1.309158	1.297436
00:00:00.154	1.309158	1.300366	1.309890
00:00:00.154	1.282784	1.290110	1.295971
00:00:00.154	1.279853	1.306960	1.300366
00:00:00.154	1.301832	1.317949	1.307692
00:00:00.154	1.315018	1.315751	1.312821
00:00:00.154	1.331136	1.313553	1.313553
00:00:00.154	1.331136	1.293040	1.309158
00:00:00.154	1.317949	1.290842	1.304029
00:00:00.154	1.315751	1.309158	1.306960
00:00:00.154	1.309158	1.295238	1.303297
00:00:00.155	1.290842	1.280586	1.297436
00:00:00.155	1.299634	1.289377	1.297436
00:00:00.155	1.306960	1.294505	1.296703
00:00:00.156	1.312088	1.303297	1.289377
00:00:00.156	1.320879	1.315018	1.300366
00:00:00.156	1.345055	1.324542	1.300366
00:00:00.157	1.323077	1.322344	1.305495
00:00:00.157	1.295238	1.309890	1.306227
00:00:00.158	1.244689	1.306227	1.305495
00:00:00.158	1.253480	1.300366	1.321612
00:00:00.158	1.287912	1.292308	1.311355
00:00:00.159	1.328938	1.290842	1.314286
00:00:00.159	1.373626	1.302564	1.315751
00:00:00.159	1.369963	1.299634	1.306960
00:00:00.160	1.339194	1.293040	1.303297
00:00:00.160	1.330403	1.309158	1.305495
00:00:00.160	1.309890	1.368498	1.305495
00:00:00.161	1.293773	1.489377	1.308425
00:00:00.161	1.311355	1.432234	1.304029
00:00:00.161	1.288645	1.334066	1.300366
00:00:00.162	1.301099	1.234432	1.302564
00:00:00.162	1.305495	1.170696	1.299634
00:00:00.163	1.299634	1.178022	1.294505
00:00:00.163	1.302564	1.198535	1.300366
00:00:00.163	1.317216	1.267399	1.304762
00:00:00.164	1.312088	1.323077	1.303297
00:00:00.164	1.315751	1.347985	1.303297
00:00:00.164	1.292308	1.340659	1.308425
00:00:00.165	1.287912	1.309890	1.309158
00:00:00.165	1.294505	1.325275	1.315751
00:00:00.165	1.296703	1.290842	1.312821
00:00:00.166	1.328205	1.246886	1.310623
00:00:00.166	1.320879	1.238828	1.298901
00:00:00.166	1.280586	1.279121	1.282784
00:00:00.199	1.316484	1.322344	1.300366
00:00:00.199	1.346520	1.297436	1.290842
00:00:00.199	1.336996	1.257143	1.280586
00:00:00.200	1.314286	1.303297	1.303297
00:00:00.200	1.300366	1.323077	1.297436
00:00:00.200	1.278388	1.323810	1.294505
00:00:00.201	1.290110	1.345788	1.310623
00:00:00.201	1.277656	1.334799	1.305495
00:00:00.202	1.298168	1.359707	1.312088
00:00:00.202	1.330403	1.334799	1.303297
00:00:00.202	1.317216	1.273993	1.296703
00:00:00.203	1.311355	1.296703	1.312088
00:00:00.204	1.298168	1.283516	1.313553
00:00:00.204	1.303297	1.291575	1.312088
00:00:00.204	1.303297	1.282784	1.312821
00:00:00.204	1.285714	1.272527	1.300366
00:00:00.204	1.273993	1.273260	1.299634
00:00:00.205	1.293040	1.364835	1.303297
00:00:00.205	1.308425	1.377289	1.298901
00:00:00.205	1.344322	1.361172	1.300366
00:00:00.206	1.364103	1.327473	1.303297
00:00:00.206	1.344322	1.289377	1.294505
00:00:00.207	1.324542	1.287912	1.312088
00:00:00.207	1.320147	1.291575	1.306960
00:00:00.207	1.304762	1.241026	1.301832
00:00:00.208	1.295238	1.270330	1.305495
00:00:00.208	1.279121	1.293773	1.298168
00:00:00.208	1.291575	1.310623	1.307692
00:00:00.209	1.304029	1.315751	1.311355
00:00:00.209	1.303297	1.315751	1.306960
00:00:00.209	1.306960	1.318681	1.305495
00:00:00.211	1.341392	1.317949	1.306960
00:00:00.211	1.353114	1.304029	1.300366
00:00:00.211	1.339194	1.312088	1.308425
00:00:00.211	1.307692	1.305495	1.297436
00:00:00.211	1.290842	1.304762	1.293040
00:00:00.212	1.323077	1.318681	1.299634
00:00:00.212	1.307692	1.315751	1.300366
00:00:00.212	1.306227	1.326007	1.306227
00:00:00.215	1.309890	1.323810	1.300366
00:00:00.215	1.306960	1.322344	1.312821
00:00:00.215	1.300366	1.314286	1.309890
00:00:00.215	1.306227	1.302564	1.306227
00:00:00.215	1.306227	1.310623	1.312821
00:00:00.215	1.305495	1.308425	1.312088
00:00:00.215	1.293040	1.296703	1.298168
00:00:00.215	1.302564	1.300366	1.310623
00:00:00.215	1.303297	1.295238	1.296703
00:00:00.219	1.307692	1.303297	1.311355
00:00:00.219	1.309158	1.296703	1.298901
00:00:00.251	1.306227	1.291575	1.293773
00:00:00.251	1.312821	1.298168	1.298901
00:00:00.251	1.314286	1.297436	1.298168
00:00:00.251	1.302564	1.302564	1.295238
00:00:00.251	1.301099	1.306227	1.300366
00:00:00.251	1.302564	1.309158	1.298168
00:00:00.251	1.317216	1.317216	1.306227
00:00:00.251	1.320147	1.309158	1.303297
00:00:00.251	1.334066	1.288645	1.303297
00:00:00.252	1.316484	1.287912	1.307692
00:00:00.252	1.315751	1.298168	1.313553
00:00:00.252	1.304029	1.301832	1.311355
00:00:00.253	1.307692	1.297436	1.306960
00:00:00.253	1.306960	1.303297	1.311355
00:00:00.253	1.304029	1.298168	1.304029
00:00:00.254	1.304029	1.304029	1.304762
00:00:00.254	1.293040	1.302564	1.295971
00:00:00.254	1.303297	1.311355	1.300366
00:00:00.255	1.312088	1.313553	1.298168
00:00:00.256	1.307692	1.313553	1.300366
00:00:00.256	1.297436	1.295238	1.284249
00:00:00.256	1.320147	1.306227	1.298901
00:00:00.256	1.312821	1.301832	1.304029
00:00:00.257	1.300366	1.299634	1.300366
00:00:00.257	1.293040	1.305495	1.307692
00:00:00.257	1.285714	1.294505	1.298901
00:00:00.258	1.301099	1.300366	1.315751
00:00:00.258	1.318681	1.297436	1.308425
00:00:00.258	1.347253	1.295238	1.313553
00:00:00.259	1.374359	1.304762	1.306227
00:00:00.259	1.362637	1.310623	1.307692
00:00:00.259	1.319414	1.304029	1.304762
00:00:00.260	1.285714	1.318681	1.304029
00:00:00.260	1.243223	1.320879	1.295238
00:00:00.261	1.247619	1.314286	1.290110
00:00:00.261	1.263736	1.306227	1.293040
00:00:00.261	1.281319	1.301099	1.291575
00:00:00.262	1.308425	1.312088	1.302564
00:00:00.262	1.323810	1.305495	1.295971
00:00:00.262	1.320879	1.295238	1.297436
00:00:00.263	1.329670	1.308425	1.307692
00:00:00.263	1.322344	1.292308	1.295971
00:00:00.263	1.326740	1.328205	1.309158
00:00:00.264	1.318681	1.332601	1.309158
00:00:00.264	1.318681	1.317216	1.295238
00:00:00.264	1.312821	1.306960	1.306960
00:00:00.265	1.315018	1.286447	1.312821
00:00:00.265	1.300366	1.280586	1.312821
00:00:00.266	1.303297	1.295971	1.308425
00:00:00.266	1.297436	1.339927	1.304029
00:00:00.298	1.309890	1.366300	1.302564
00:00:00.298	1.306227	1.330403	1.295971
00:00:00.299	1.311355	1.297436	1.291575
00:00:00.299	1.317949	1.268864	1.297436
00:00:00.300	1.307692	1.262271	1.293773
00:00:00.300	1.335531	1.247619	1.309158
00:00:00.300	1.317216	1.217582	1.304029
00:00:00.301	1.295238	1.195604	1.295238
00:00:00.301	1.308425	1.255678	1.305495
00:00:00.301	1.310623	1.300366	1.309158
00:00:00.302	1.309890	1.320147	1.308425
00:00:00.302	1.308425	1.328938	1.313553
00:00:00.302	1.304762	1.323077	1.299634
00:00:00.303	1.313553	1.333333	1.308425
00:00:00.303	1.312088	1.328938	1.310623
00:00:00.303	1.314286	1.328938	1.299634
00:00:00.304	1.311355	1.338462	1.311355
00:00:00.304	1.295971	1.323810	1.297436
00:00:00.305	1.287179	1.321612	1.298168
00:00:00.305	1.302564	1.324542	1.298901
00:00:00.305	1.310623	1.315018	1.287179
00:00:00.306	1.317216	1.316484	1.298168
00:00:00.306	1.315018	1.314286	1.302564
00:00:00.306	1.298901	1.303297	1.293040
00:00:00.307	1.312088	1.305495	1.306227
00:00:00.307	1.306960	1.300366	1.301832
00:00:00.309	1.304762	1.298168	1.305495
00:00:00.309	1.312821	1.304762	1.313553
00:00:00.309	1.315018	1.300366	1.306227
00:00:00.309	1.316484	1.304762	1.304029
00:00:00.309	1.309158	1.309158	1.306227
00:00:00.309	1.294505	1.305495	1.298901
00:00:00.311	1.320147	1.317216	1.305495
00:00:00.311	1.312088	1.312088	1.293773
00:00:00.311	1.308425	1.309158	1.304029
00:00:00.312	1.315751	1.309890	1.302564
00:00:00.312	1.309158	1.295238	1.296703
00:00:00.312	1.315018	1.291575	1.299634
00:00:00.312	1.317949	1.295238	1.301832
00:00:00.312	1.319414	1.309158	1.299634
00:00:00.312	1.319414	1.327473	1.304029
00:00:00.316	1.309158	1.324542	1.302564
00:00:00.316	1.300366	1.317216	1.306960
00:00:00.316	1.303297	1.303297	1.304029
00:00:00.316	1.318681	1.286447	1.306960
00:00:00.316	1.316484	1.280586	1.311355
00:00:00.316	1.317216	1.284249	1.309890
00:00:00.316	1.305495	1.284982	1.312821
00:00:00.316	1.304762	1.276923	1.306960
00:00:00.316	1.298168	1.278388	1.295238
00:00:00.348	1.316484	1.317949	1.305495
00:00:00.348	1.317949	1.316484	1.302564
00:00:00.349	1.306227	1.316484	1.306227
00:00:00.349	1.320147	1.323810	1.296703
00:00:00.349	1.294505	1.302564	1.282051
00:00:00.350	1.301832	1.313553	1.296703
00:00:00.350	1.312088	1.315018	1.304029
00:00:00.350	1.295971	1.296703	1.293773
00:00:00.351	1.309158	1.312821	1.314286
00:00:00.351	1.304029	1.308425	1.306227
00:00:00.351	1.284982	1.300366	1.307692
00:00:00.352	1.282051	1.289377	1.295971
00:00:00.352	1.293040	1.298168	1.300366
00:00:00.352	1.309158	1.311355	1.316484
00:00:00.353	1.320879	1.312821	1.308425
00:00:00.353	1.304762	1.302564	1.291575
00:00:00.354	1.326740	1.323810	1.307692
00:00:00.354	1.315018	1.304029	1.291575
00:00:00.354	1.315751	1.317216	1.300366
00:00:00.355	1.312821	1.311355	1.296703
00:00:00.355	1.306227	1.308425	1.296703
00:00:00.355	1.306960	1.304762	1.303297
00:00:00.356	1.300366	1.298168	1.306227
00:00:00.356	1.294505	1.295238	1.312088
00:00:00.356	1.317949	1.293773	1.308425
00:00:00.357	1.317949	1.282784	1.306227
00:00:00.357	1.315751	1.290842	1.306227
00:00:00.357	1.301832	1.288645	1.298901
00:00:00.358	1.307692	1.298901	1.296703
00:00:00.358	1.314286	1.292308	1.308425
00:00:00.359	1.321612	1.298168	1.312088
00:00:00.359	1.314286	1.308425	1.302564
00:00:00.360	1.317216	1.323077	1.299634
00:00:00.360	1.312821	1.334066	1.298901
00:00:00.360	1.312821	1.331136	1.300366
00:00:00.360	1.317216	1.328205	1.304762
00:00:00.361	1.301099	1.321612	1.293773
00:00:00.361	1.295238	1.298168	1.290110
00:00:00.361	1.311355	1.293773	1.282051
00:00:00.362	1.308425	1.284982	1.284249
00:00:00.362	1.320879	1.298168	1.309890
00:00:00.362	1.321612	1.300366	1.309890
00:00:00.363	1.316484	1.309890	1.309158
00:00:00.363	1.321612	1.309158	1.308425
00:00:00.364	1.307692	1.288645	1.312088
00:00:00.364	1.300366	1.277656	1.314286
00:00:00.364	1.304762	1.275458	1.317949
00:00:00.365	1.303297	1.285714	1.307692
00:00:00.365	1.301832	1.302564	1.307692
00:00:00.365	1.313553	1.316484	1.306227
00:00:00.398	1.312088	1.315018	1.295238
00:00:00.398	1.310623	1.312821	1.293773
00:00:00.398	1.317216	1.315751	1.296703
00:00:00.400	1.295971	1.312088	1.293040
00:00:00.400	1.275458	1.303297	1.284982
00:00:00.400	1.290110	1.296703	1.290842
00:00:00.400	1.301099	1.301832	1.306227
00:00:00.400	1.332601	1.312088	1.311355
00:00:00.400	1.330403	1.301832	1.308425
00:00:00.401	1.331868	1.304029	1.316484
00:00:00.401	1.301832	1.305495	1.304029
00:00:00.401	1.302564	1.304762	1.319414
00:00:00.402	1.317949	1.297436	1.315018
00:00:00.402	1.287912	1.298168	1.312088
00:00:00.403	1.227839	1.305495	1.313553
00:00:00.405	1.253480	1.297436	1.309890
00:00:00.405	1.287912	1.309158	1.316484
00:00:00.405	1.290110	1.295971	1.302564
00:00:00.405	1.281319	1.289377	1.297436
00:00:00.405	1.300366	1.299634	1.286447
00:00:00.405	1.312088	1.320879	1.295971
00:00:00.405	1.400733	1.323810	1.294505
00:00:00.405	1.465934	1.305495	1.279121
00:00:00.408	1.367033	1.321612	1.317216
00:00:00.408	1.320879	1.317949	1.321612
00:00:00.408	1.298901	1.301832	1.312088
00:00:00.408	1.304762	1.304029	1.315018
00:00:00.408	1.291575	1.291575	1.297436
00:00:00.408	1.289377	1.294505	1.304762
00:00:00.408	1.293773	1.304029	1.307692
00:00:00.408	1.291575	1.300366	1.298168
00:00:00.412	1.309890	1.290110	1.303297
00:00:00.412	1.317949	1.303297	1.304762
00:00:00.412	1.285714	1.295238	1.292308
00:00:00.412	1.306960	1.312088	1.303297
00:00:00.412	1.312821	1.316484	1.298168
00:00:00.412	1.300366	1.313553	1.296703
00:00:00.412	1.299634	1.303297	1.290842
00:00:00.412	1.297436	1.309158	1.300366
00:00:00.412	1.298168	1.311355	1.298901
00:00:00.412	1.305495	1.302564	1.305495
00:00:00.412	1.310623	1.290842	1.308425
00:00:00.413	1.306960	1.285714	1.301832
00:00:00.413	1.304029	1.290842	1.304029
00:00:00.413	1.308425	1.309158	1.312821
00:00:00.414	1.309158	1.311355	1.300366
00:00:00.414	1.308425	1.310623	1.309890
00:00:00.414	1.315018	1.312088	1.310623
00:00:00.415	1.318681	1.309890	1.312821
00:00:00.415	1.309158	1.298168	1.304029
00:00:00.447	1.317949	1.306227	1.300366
00:00:00.448	1.317216	1.300366	1.300366
00:00:00.448	1.309158	1.289377	1.297436
00:00:00.448	1.316484	1.288645	1.300366
00:00:00.449	1.316484	1.297436	1.299634
00:00:00.449	1.291575	1.300366	1.303297
00:00:00.449	1.263736	1.310623	1.310623
00:00:00.450	1.294505	1.305495	1.304762
00:00:00.450	1.311355	1.311355	1.306227
00:00:00.450	1.313553	1.320147	1.307692
00:00:00.451	1.310623	1.314286	1.304029
00:00:00.451	1.305495	1.306960	1.308425
00:00:00.452	1.309158	1.304762	1.310623
00:00:00.452	1.318681	1.294505	1.314286
00:00:00.452	1.298901	1.290842	1.306960
00:00:00.453	1.306960	1.300366	1.307692
00:00:00.453	1.301099	1.289377	1.299634
00:00:00.453	1.302564	1.302564	1.305495
00:00:00.454	1.319414	1.309158	1.298168
00:00:00.454	1.312821	1.301832	1.292308
00:00:00.454	1.320147	1.321612	1.300366
00:00:00.455	1.326007	1.316484	1.299634
00:00:00.455	1.306960	1.307692	1.293040
00:00:00.455	1.329670	1.309158	1.300366
00:00:00.456	1.331136	1.295971	1.304029
00:00:00.456	1.300366	1.287179	1.304029
00:00:00.457	1.308425	1.304762	1.312088
00:00:00.457	1.304029	1.308425	1.300366
00:00:00.457	1.301832	1.315751	1.307692
00:00:00.458	1.300366	1.315018	1.312088
00:00:00.458	1.306227	1.315751	1.306227
00:00:00.458	1.296703	1.301832	1.301832
00:00:00.459	1.311355	1.312088	1.315751
00:00:00.459	1.310623	1.309890	1.304762
00:00:00.459	1.311355	1.311355	1.309158
00:00:00.460	1.313553	1.295971	1.302564
00:00:00.460	1.300366	1.285714	1.295238
00:00:00.460	1.314286	1.302564	1.297436
00:00:00.461	1.311355	1.320879	1.300366
00:00:00.461	1.301832	1.308425	1.293040
00:00:00.462	1.298168	1.305495	1.304029
00:00:00.462	1.303297	1.300366	1.302564
00:00:00.462	1.306960	1.294505	1.307692
00:00:00.463	1.300366	1.277656	1.295238
00:00:00.463	1.312088	1.282051	1.304029
00:00:00.463	1.314286	1.279121	1.300366
00:00:00.465	1.312821	1.282051	1.309890
00:00:00.465	1.299634	1.287912	1.308425
00:00:00.465	1.310623	1.313553	1.313553
00:00:00.465	1.301832	1.308425	1.309890
00:00:00.497	1.300366	1.314286	1.303297
00:00:00.497	1.309890	1.320147	1.300366
00:00:00.498	1.317216	1.318681	1.299634
00:00:00.498	1.321612	1.324542	1.296703
00:00:00.498	1.326007	1.324542	1.302564
00:00:00.500	1.315751	1.304762	1.300366
00:00:00.500	1.304029	1.290842	1.293773
00:00:00.500	1.315018	1.303297	1.308425
00:00:00.500	1.307692	1.298901	1.305495
00:00:00.500	1.295971	1.295971	1.305495
00:00:00.501	1.311355	1.316484	1.312821
00:00:00.501	1.296703	1.312821	1.297436
00:00:00.501	1.294505	1.321612	1.302564
00:00:00.504	1.309158	1.320879	1.308425
00:00:00.504	1.306960	1.306960	1.300366
00:00:00.504	1.309890	1.298168	1.308425
00:00:00.504	1.314286	1.296703	1.308425
00:00:00.504	1.315751	1.292308	1.296703
00:00:00.504	1.309158	1.299634	1.302564
00:00:00.504	1.314286	1.309890	1.298168
00:00:00.504	1.314286	1.309158	1.291575
00:00:00.504	1.318681	1.311355	1.300366
00:00:00.508	1.320147	1.314286	1.304762
00:00:00.508	1.309890	1.306227	1.299634
00:00:00.508	1.312821	1.304029	1.300366
00:00:00.508	1.307692	1.301832	1.306960
00:00:00.508	1.317216	1.302564	1.306227
00:00:00.508	1.311355	1.303297	1.306227
00:00:00.508	1.296703	1.296703	1.306960
00:00:00.508	1.309158	1.315018	1.316484
00:00:00.508	1.300366	1.301832	1.302564
00:00:00.508	1.312088	1.305495	1.311355
00:00:00.508	1.315751	1.297436	1.300366
00:00:00.509	1.308425	1.290110	1.300366
00:00:00.509	1.311355	1.296703	1.298168
00:00:00.509	1.304762	1.296703	1.293773
00:00:00.510	1.290842	1.298901	1.295971
00:00:00.510	1.290842	1.306227	1.295238
00:00:00.511	1.280586	1.304762	1.297436
00:00:00.511	1.317216	1.298168	1.300366
00:00:00.511	1.319414	1.287912	1.295971
00:00:00.512	1.315018	1.300366	1.301832
00:00:00.512	1.334066	1.314286	1.306227
00:00:00.512	1.332601	1.315018	1.303297
00:00:00.513	1.334799	1.314286	1.312821
00:00:00.513	1.312088	1.319414	1.304762
00:00:00.513	1.319414	1.315751	1.316484
00:00:00.514	1.312088	1.312088	1.313553
00:00:00.514	1.305495	1.306960	1.309890
00:00:00.514	1.252747	1.296703	1.302564
00:00:00.547	1.281319	1.301832	1.303297
00:00:00.547	1.298168	1.299634	1.292308
00:00:00.547	1.295971	1.310623	1.300366
00:00:00.549	1.311355	1.315751	1.303297
00:00:00.549	1.315751	1.312821	1.290110
00:00:00.549	1.320147	1.312088	1.289377
00:00:00.549	1.320879	1.319414	1.300366
00:00:00.549	1.311355	1.316484	1.304029
00:00:00.550	1.306227	1.310623	1.304029
00:00:00.550	1.306227	1.309158	1.306960
00:00:00.550	1.306227	1.290842	1.310623
00:00:00.551	1.304029	1.276190	1.305495
00:00:00.551	1.311355	1.280586	1.304762
00:00:00.551	1.316484	1.277656	1.310623
00:00:00.552	1.336264	1.276923	1.305495
00:00:00.552	1.323810	1.278388	1.310623
00:00:00.552	1.312088	1.298168	1.313553
00:00:00.553	1.300366	1.310623	1.303297
00:00:00.553	1.305495	1.330403	1.304029
00:00:00.553	1.311355	1.366300	1.304029
00:00:00.554	1.309158	1.352381	1.302564
00:00:00.554	1.302564	1.305495	1.304762
00:00:00.555	1.298168	1.263736	1.288645
00:00:00.555	1.303297	1.269597	1.295971
00:00:00.555	1.310623	1.301832	1.307692
00:00:00.556	1.311355	1.298901	1.297436
00:00:00.556	1.302564	1.293040	1.306960
00:00:00.556	1.304029	1.287179	1.307692
00:00:00.557	1.315751	1.306960	1.315018
00:00:00.557	1.308425	1.323077	1.316484
00:00:00.557	1.309158	1.334799	1.311355
00:00:00.558	1.295238	1.331136	1.304029
00:00:00.558	1.308425	1.343590	1.307692
00:00:00.558	1.312088	1.340659	1.304029
00:00:00.560	1.302564	1.322344	1.297436
00:00:00.560	1.311355	1.291575	1.298901
00:00:00.560	1.311355	1.275458	1.293773
00:00:00.560	1.316484	1.282051	1.299634
00:00:00.560	1.325275	1.284249	1.300366
00:00:00.561	1.297436	1.246154	1.289377
00:00:00.561	1.309890	1.249084	1.293773
00:00:00.561	1.314286	1.263004	1.306227
00:00:00.562	1.303297	1.275458	1.307692
00:00:00.562	1.282051	1.285714	1.295971
00:00:00.562	1.298901	1.327473	1.306960
00:00:00.564	1.307692	1.339194	1.314286
00:00:00.564	1.296703	1.336264	1.305495
00:00:00.564	1.315751	1.350916	1.317949
00:00:00.564	1.317949	1.347985	1.300366
00:00:00.564	1.323077	1.334066	1.310623
00:00:00.596	1.325275	1.328205	1.310623
00:00:00.598	1.307692	1.304029	1.294505
00:00:00.598	1.319414	1.309890	1.305495
00:00:00.598	1.301099	1.302564	1.297436
00:00:00.599	1.300366	1.288645	1.294505
00:00:00.599	1.314286	1.276923	1.297436
00:00:00.599	1.318681	1.282051	1.297436
00:00:00.599	1.313553	1.318681	1.287179
00:00:00.599	1.316484	1.306960	1.295971
00:00:00.603	1.299634	1.254212	1.287912
00:00:00.603	1.297436	1.266667	1.303297
00:00:00.603	1.302564	1.281319	1.306960
00:00:00.603	1.306227	1.294505	1.323810
00:00:00.603	1.303297	1.308425	1.318681
00:00:00.603	1.309158	1.295238	1.316484
00:00:00.603	1.304762	1.288645	1.308425
00:00:00.603	1.309158	1.304762	1.308425
00:00:00.603	1.309890	1.314286	1.298168
00:00:00.603	1.315018	1.322344	1.297436
00:00:00.603	1.315751	1.306960	1.300366
00:00:00.605	1.315751	1.301099	1.298901
00:00:00.605	1.326007	1.306227	1.300366
00:00:00.605	1.320879	1.310623	1.299634
00:00:00.605	1.314286	1.309158	1.298901
00:00:00.605	1.296703	1.310623	1.298901
00:00:00.605	1.305495	1.328205	1.293773
00:00:00.606	1.288645	1.332601	1.308425
00:00:00.606	1.281319	1.330403	1.317216
00:00:00.606	1.289377	1.316484	1.315751
00:00:00.607	1.300366	1.300366	1.296703
00:00:00.607	1.305495	1.320147	1.300366
00:00:00.607	1.317949	1.329670	1.306960
00:00:00.608	1.304029	1.304029	1.306227
00:00:00.608	1.317216	1.290842	1.309158
00:00:00.609	1.313553	1.288645	1.299634
00:00:00.609	1.317949	1.309890	1.304029
00:00:00.609	1.323077	1.314286	1.300366
00:00:00.610	1.315018	1.292308	1.291575
00:00:00.610	1.316484	1.281319	1.295238
00:00:00.610	1.314286	1.289377	1.298901
00:00:00.611	1.299634	1.295238	1.295971
00:00:00.611	1.308425	1.310623	1.301832
00:00:00.611	1.308425	1.306960	1.309158
00:00:00.612	1.300366	1.299634	1.297436
00:00:00.612	1.313553	1.309158	1.309158
00:00:00.612	1.312088	1.309890	1.311355
00:00:00.613	1.310623	1.312088	1.315751
00:00:00.613	1.309158	1.309158	1.305495
00:00:00.614	1.317216	1.297436	1.298901
00:00:00.614	1.320147	1.304029	1.310623
00:00:00.646	1.325275	1.306227	1.301832
00:00:00.646	1.312821	1.306960	1.295238
00:00:00.647	1.279853	1.307692	1.297436
00:00:00.647	1.300366	1.307692	1.298168
00:00:00.648	1.295238	1.295238	1.304029
00:00:00.648	1.284982	1.304762	1.296703
00:00:00.648	1.310623	1.296703	1.300366
00:00:00.649	1.315018	1.300366	1.298901
00:00:00.649	1.318681	1.306960	1.302564
00:00:00.649	1.306227	1.306960	1.304029
00:00:00.650	1.305495	1.299634	1.304029
00:00:00.650	1.298168	1.288645	1.309158
00:00:00.650	1.300366	1.290110	1.313553
00:00:00.651	1.298168	1.290110	1.320879
00:00:00.651	1.306960	1.297436	1.311355
00:00:00.651	1.318681	1.302564	1.305495
00:00:00.652	1.332601	1.325275	1.315751
00:00:00.653	1.353114	1.336264	1.309890
00:00:00.653	1.331136	1.334799	1.304029
00:00:00.653	1.320147	1.342125	1.298168
00:00:00.653	1.301832	1.319414	1.287912
00:00:00.654	1.309890	1.326007	1.300366
00:00:00.654	1.308425	1.306960	1.293773
00:00:00.654	1.300366	1.282784	1.293773
00:00:00.655	1.307692	1.263004	1.301832
00:00:00.655	1.304762	1.262271	1.293040
00:00:00.655	1.306227	1.279853	1.307692
00:00:00.656	1.306227	1.285714	1.306960
00:00:00.656	1.306227	1.304762	1.314286
00:00:00.656	1.309158	1.310623	1.307692
00:00:00.657	1.306227	1.315018	1.312088
00:00:00.657	1.291575	1.309890	1.315018
00:00:00.659	1.300366	1.323077	1.312821
00:00:00.659	1.302564	1.323077	1.298168
00:00:00.659	1.311355	1.317216	1.310623
00:00:00.661	1.317216	1.304029	1.306960
00:00:00.661	1.310623	1.285714	1.287912
00:00:00.661	1.301832	1.284982	1.298901
00:00:00.661	1.309158	1.291575	1.300366
00:00:00.661	1.309158	1.290842	1.287912
00:00:00.661	1.311355	1.320147	1.300366
00:00:00.661	1.325275	1.325275	1.304029
00:00:00.661	1.315018	1.320879	1.309890
00:00:00.661	1.304762	1.307692	1.309158
00:00:00.663	1.312088	1.307692	1.308425
00:00:00.663	1.306227	1.290842	1.300366
00:00:00.663	1.317949	1.293773	1.312821
00:00:00.663	1.310623	1.298901	1.312821
00:00:00.663	1.294505	1.302564	1.296703
00:00:00.667	1.304762	1.319414	1.308425
00:00:00.696	1.296703	1.317216	1.306227
00:00:00.696	1.302564	1.309890	1.299634
00:00:00.700	1.308425	1.301099	1.301832
00:00:00.700	1.312088	1.295971	1.300366
00:00:00.700	1.315751	1.300366	1.303297
00:00:00.700	1.318681	1.306227	1.296703
00:00:00.700	1.316484	1.303297	1.290110
00:00:00.700	1.312088	1.309158	1.305495
00:00:00.700	1.307692	1.306960	1.300366
00:00:00.700	1.308425	1.308425	1.295238
00:00:00.700	1.320879	1.317949	1.315018
00:00:00.700	1.295238	1.306960	1.308425
00:00:00.700	1.293773	1.298901	1.308425
00:00:00.700	1.306227	1.305495	1.309158
00:00:00.701	1.311355	1.303297	1.310623
00:00:00.701	1.299634	1.289377	1.300366
00:00:00.702	1.306960	1.298168	1.308425
00:00:00.702	1.303297	1.295971	1.299634
00:00:00.702	1.304762	1.290110	1.297436
00:00:00.703	1.320879	1.305495	1.306960
00:00:00.703	1.316484	1.301832	1.298901
00:00:00.703	1.320879	1.312088	1.306227
00:00:00.704	1.322344	1.321612	1.300366
00:00:00.704	1.317949	1.322344	1.300366
00:00:00.705	1.313553	1.315751	1.294505
00:00:00.705	1.307692	1.315751	1.300366
00:00:00.705	1.294505	1.301832	1.300366
00:00:00.705	1.296703	1.298901	1.297436
00:00:00.706	1.304762	1.292308	1.292308
00:00:00.706	1.309158	1.289377	1.309158
00:00:00.707	1.299634	1.280586	1.307692
00:00:00.707	1.295971	1.276190	1.302564
00:00:00.707	1.302564	1.288645	1.312821
00:00:00.708	1.302564	1.292308	1.302564
00:00:00.708	1.301832	1.290842	1.306227
00:00:00.708	1.310623	1.301832	1.300366
00:00:00.709	1.312821	1.309890	1.292308
00:00:00.709	1.307692	1.312821	1.295238
00:00:00.709	1.323810	1.323077	1.300366
00:00:00.710	1.317216	1.310623	1.295971
00:00:00.710	1.306227	1.310623	1.305495
00:00:00.711	1.296703	1.300366	1.301832
00:00:00.711	1.293773	1.301099	1.298168
00:00:00.711	1.276923	1.300366	1.294505
00:00:00.712	1.277656	1.318681	1.308425
00:00:00.712	1.303297	1.308425	1.315018
00:00:00.712	1.301099	1.298168	1.312821
00:00:00.713	1.295238	1.286447	1.304762
00:00:00.713	1.314286	1.297436	1.310623
00:00:00.713	1.318681	1.298901	1.314286
00:00:00.746	1.321612	1.290842	1.305495
00:00:00.746	1.340659	1.291575	1.297436
00:00:00.746	1.331868	1.297436	1.289377
00:00:00.747	1.312821	1.310623	1.298901
00:00:00.747	1.310623	1.317949	1.295238
00:00:00.747	1.297436	1.308425	1.283516
00:00:00.748	1.310623	1.340659	1.307692
00:00:00.748	1.312821	1.328205	1.300366
00:00:00.748	1.301832	1.306960	1.297436
00:00:00.749	1.302564	1.294505	1.296703
00:00:00.749	1.312088	1.290110	1.300366
00:00:00.749	1.308425	1.287179	1.308425
00:00:00.750	1.307692	1.294505	1.307692
00:00:00.750	1.287912	1.287179	1.307692
00:00:00.751	1.289377	1.288645	1.301832
00:00:00.751	1.304762	1.296703	1.299634
00:00:00.751	1.307692	1.300366	1.306960
00:00:00.752	1.313553	1.305495	1.306227
00:00:00.752	1.308425	1.308425	1.306227
00:00:00.752	1.320147	1.311355	1.305495
00:00:00.754	1.318681	1.320879	1.300366
00:00:00.754	1.318681	1.329670	1.303297
00:00:00.754	1.311355	1.311355	1.285714
00:00:00.754	1.309158	1.309890	1.298168
00:00:00.754	1.301832	1.307692	1.299634
00:00:00.754	1.305495	1.303297	1.297436
00:00:00.757	1.324542	1.300366	1.305495
00:00:00.757	1.309158	1.291575	1.290842
00:00:00.757	1.299634	1.298901	1.306227
00:00:00.757	1.305495	1.306227	1.304029
00:00:00.757	1.297436	1.299634	1.303297
00:00:00.757	1.300366	1.304762	1.311355
00:00:00.757	1.301832	1.299634	1.310623
00:00:00.757	1.298168	1.295238	1.304029
00:00:00.758	1.320879	1.308425	1.304762
00:00:00.758	1.315751	1.299634	1.295238
00:00:00.758	1.315018	1.300366	1.298901
00:00:00.760	1.314286	1.299634	1.300366
00:00:00.760	1.295971	1.289377	1.289377
00:00:00.760	1.307692	1.306227	1.306960
00:00:00.760	1.306227	1.311355	1.296703
00:00:00.760	1.303297	1.326740	1.300366
00:00:00.764	1.309158	1.326740	1.301832
00:00:00.764	1.313553	1.306227	1.308425
00:00:00.764	1.309158	1.287179	1.306960
00:00:00.764	1.310623	1.293773	1.310623
00:00:00.764	1.312821	1.295971	1.306960
00:00:00.764	1.306960	1.300366	1.306227
00:00:00.764	1.307692	1.294505	1.309890
00:00:00.764	1.312821	1.287912	1.306960
