timestamp	ch1	ch2	ch3
00:00:00.000	1.326007	1.388278	1.309890
00:00:00.000	1.306960	1.373626	1.298168
00:00:00.001	1.289377	1.385348	1.303297
00:00:00.001	1.284249	1.364835	1.296703
00:00:00.001	1.290842	1.394872	1.295971
00:00:00.002	1.323077	1.369231	1.306227
00:00:00.002	1.318681	1.305495	1.295238
00:00:00.002	1.326007	1.263736	1.316484
00:00:00.003	1.334066	1.228571	1.314286
00:00:00.003	1.310623	1.191941	1.314286
00:00:00.003	1.307692	1.199267	1.310623
00:00:00.004	1.306227	1.222711	1.313553
00:00:00.004	1.315751	1.257875	1.311355
00:00:00.005	1.321612	1.301832	1.309158
00:00:00.005	1.311355	1.320147	1.300366
00:00:00.005	1.320147	1.319414	1.309158
00:00:00.007	1.309890	1.303297	1.302564
00:00:00.007	1.301099	1.291575	1.306227
00:00:00.007	1.306960	1.277656	1.297436
00:00:00.007	1.303297	1.277656	1.295238
00:00:00.007	1.306227	1.289377	1.297436
00:00:00.007	1.297436	1.279121	1.291575
00:00:00.008	1.312088	1.293040	1.306960
00:00:00.008	1.320147	1.300366	1.311355
00:00:00.008	1.316484	1.300366	1.312088
00:00:00.010	1.331136	1.285714	1.304029
00:00:00.010	1.346520	1.276923	1.304029
00:00:00.010	1.335531	1.283516	1.317216
00:00:00.010	1.321612	1.267399	1.310623
00:00:00.010	1.325275	1.271795	1.317216
00:00:00.012	1.305495	1.266667	1.310623
00:00:00.012	1.265201	1.245421	1.306960
00:00:00.012	1.237363	1.237363	1.286447
00:00:00.012	1.283516	1.241758	1.293773
00:00:00.012	1.314286	1.270330	1.290110
00:00:00.012	1.317949	1.308425	1.297436
00:00:00.013	1.307692	1.326740	1.300366
00:00:00.013	1.320879	1.327473	1.294505
00:00:00.014	1.360440	1.334799	1.293773
00:00:00.014	1.343590	1.345788	1.303297
00:00:00.014	1.326007	1.347985	1.306960
00:00:00.015	1.312088	1.309158	1.306227
00:00:00.015	1.266667	1.284982	1.308425
00:00:00.015	1.270330	1.279853	1.316484
00:00:00.016	1.241758	1.296703	1.319414
00:00:00.016	1.283516	1.285714	1.314286
00:00:00.016	1.336996	1.237363	1.314286
00:00:00.017	1.339927	1.234432	1.309158
00:00:00.017	1.334799	1.288645	1.307692
00:00:00.017	1.300366	1.300366	1.309890
00:00:00.050	1.254945	1.284982	1.293040
00:00:00.050	1.294505	1.265201	1.294505
00:00:00.050	1.301832	1.271062	1.298168
00:00:00.051	1.317949	1.314286	1.295971
00:00:00.051	1.317949	1.331136	1.299634
00:00:00.051	1.354579	1.323810	1.305495
00:00:00.052	1.353846	1.314286	1.300366
00:00:00.052	1.326740	1.308425	1.304029
00:00:00.052	1.306227	1.280586	1.307692
00:00:00.053	1.304762	1.275458	1.306960
00:00:00.053	1.288645	1.286447	1.316484
00:00:00.054	1.280586	1.298901	1.317949
00:00:00.054	1.264469	1.298168	1.315751
00:00:00.054	1.306227	1.312821	1.309158
00:00:00.055	1.316484	1.297436	1.286447
00:00:00.055	1.348718	1.329670	1.298901
00:00:00.055	1.345055	1.348718	1.304762
00:00:00.056	1.308425	1.335531	1.300366
00:00:00.056	1.312088	1.343590	1.300366
00:00:00.056	1.330403	1.334799	1.296703
00:00:00.057	1.340659	1.326740	1.297436
00:00:00.057	1.327473	1.306227	1.292308
00:00:00.058	1.319414	1.309158	1.298168
00:00:00.058	1.309158	1.304762	1.303297
00:00:00.058	1.300366	1.304762	1.297436
00:00:00.059	1.300366	1.316484	1.312821
00:00:00.059	1.282784	1.304029	1.313553
00:00:00.059	1.288645	1.294505	1.316484
00:00:00.060	1.304762	1.296703	1.307692
00:00:00.060	1.302564	1.310623	1.310623
00:00:00.060	1.322344	1.353114	1.307692
00:00:00.061	1.319414	1.329670	1.310623
00:00:00.061	1.320147	1.271795	1.305495
00:00:00.062	1.306227	1.234432	1.300366
00:00:00.062	1.308425	1.266667	1.304029
00:00:00.062	1.307692	1.303297	1.303297
00:00:00.063	1.307692	1.309158	1.305495
00:00:00.063	1.293773	1.283516	1.293040
00:00:00.063	1.295238	1.339194	1.292308
00:00:00.064	1.321612	1.358974	1.297436
00:00:00.064	1.309158	1.344322	1.298901
00:00:00.064	1.294505	1.295238	1.306227
00:00:00.065	1.319414	1.268132	1.313553
00:00:00.065	1.352381	1.254212	1.320879
00:00:00.065	1.387546	1.268864	1.318681
00:00:00.066	1.359707	1.265934	1.308425
00:00:00.066	1.297436	1.272527	1.306960
00:00:00.066	1.266667	1.255678	1.298168
00:00:00.067	1.232967	1.277656	1.291575
00:00:00.067	1.268864	1.346520	1.300366
00:00:00.099	1.312088	1.396337	1.300366
00:00:00.100	1.318681	1.429304	1.300366
00:00:00.100	1.310623	1.377289	1.293040
00:00:00.100	1.309890	1.308425	1.287179
00:00:00.101	1.315751	1.252747	1.291575
00:00:00.101	1.323077	1.244689	1.301832
00:00:00.103	1.328205	1.230769	1.300366
00:00:00.103	1.305495	1.219048	1.298168
00:00:00.103	1.300366	1.222711	1.294505
00:00:00.103	1.297436	1.243956	1.300366
00:00:00.103	1.298168	1.316484	1.304029
00:00:00.103	1.289377	1.370696	1.309158
00:00:00.105	1.295971	1.385348	1.308425
00:00:00.105	1.312088	1.410256	1.312821
00:00:00.105	1.306227	1.406593	1.309890
00:00:00.105	1.328938	1.399267	1.312821
00:00:00.105	1.320147	1.302564	1.308425
00:00:00.105	1.328205	1.244689	1.300366
00:00:00.108	1.329670	1.237363	1.299634
00:00:00.108	1.336264	1.225641	1.292308
00:00:00.108	1.303297	1.247619	1.293773
00:00:00.108	1.282784	1.336264	1.298901
00:00:00.108	1.302564	1.305495	1.300366
00:00:00.108	1.290842	1.249817	1.304029
00:00:00.108	1.306960	1.234432	1.306960
00:00:00.108	1.305495	1.266667	1.308425
00:00:00.109	1.305495	1.298901	1.300366
00:00:00.109	1.307692	1.319414	1.298901
00:00:00.109	1.307692	1.331868	1.317949
00:00:00.110	1.301099	1.338462	1.316484
00:00:00.110	1.291575	1.327473	1.317949
00:00:00.110	1.305495	1.322344	1.302564
00:00:00.111	1.317949	1.327473	1.284249
00:00:00.111	1.350183	1.362637	1.306960
00:00:00.112	1.354579	1.348718	1.300366
00:00:00.112	1.345788	1.318681	1.293773
00:00:00.112	1.337729	1.302564	1.292308
00:00:00.113	1.317216	1.299634	1.284249
00:00:00.113	1.293040	1.306227	1.289377
00:00:00.113	1.326007	1.317949	1.299634
00:00:00.114	1.296703	1.308425	1.300366
00:00:00.114	1.253480	1.297436	1.310623
00:00:00.114	1.258608	1.298168	1.300366
00:00:00.115	1.295971	1.295971	1.305495
00:00:00.115	1.334066	1.304762	1.316484
00:00:00.115	1.324542	1.292308	1.305495
00:00:00.116	1.279853	1.303297	1.316484
00:00:00.116	1.278388	1.320147	1.308425
00:00:00.117	1.214652	1.304029	1.310623
00:00:00.117	1.257143	1.300366	1.301832
00:00:00.149	1.317216	1.315018	1.291575
00:00:00.149	1.320879	1.339194	1.298901
00:00:00.150	1.323077	1.320147	1.290110
00:00:00.150	1.383883	1.303297	1.293040
00:00:00.151	1.405861	1.331136	1.300366
00:00:00.151	1.320147	1.377289	1.299634
00:00:00.151	1.288645	1.350916	1.303297
00:00:00.152	1.293773	1.323810	1.305495
00:00:00.152	1.308425	1.265934	1.299634
00:00:00.152	1.322344	1.238828	1.295238
00:00:00.153	1.339194	1.219048	1.318681
00:00:00.153	1.334799	1.195604	1.323077
00:00:00.153	1.310623	1.175824	1.306960
00:00:00.154	1.298168	1.210256	1.315018
00:00:00.154	1.300366	1.282784	1.302564
00:00:00.154	1.279121	1.326740	1.298901
00:00:00.155	1.291575	1.336264	1.312821
00:00:00.155	1.317216	1.322344	1.298168
00:00:00.156	1.317949	1.328205	1.296703
00:00:00.156	1.322344	1.345055	1.300366
00:00:00.156	1.312088	1.342125	1.293773
00:00:00.157	1.313553	1.356777	1.298901
00:00:00.157	1.323810	1.369231	1.300366
00:00:00.157	1.319414	1.402930	1.303297
00:00:00.158	1.310623	1.379487	1.304029
00:00:00.158	1.295971	1.375092	1.308425
00:00:00.158	1.292308	1.334066	1.315751
00:00:00.159	1.304762	1.312821	1.323077
00:00:00.159	1.300366	1.251282	1.318681
00:00:00.159	1.298901	1.243223	1.315018
00:00:00.160	1.313553	1.256410	1.311355
00:00:00.160	1.315018	1.304029	1.315018
00:00:00.161	1.311355	1.309158	1.314286
00:00:00.161	1.293040	1.232967	1.300366
00:00:00.161	1.312088	1.235165	1.299634
00:00:00.162	1.323810	1.280586	1.309158
00:00:00.162	1.313553	1.362637	1.295238
00:00:00.162	1.309158	1.438828	1.298901
00:00:00.163	1.311355	1.384615	1.296703
00:00:00.163	1.306227	1.309158	1.285714
00:00:00.163	1.306227	1.283516	1.289377
00:00:00.164	1.308425	1.304029	1.295971
00:00:00.164	1.317216	1.247619	1.310623
00:00:00.164	1.329670	1.243223	1.309890
00:00:00.165	1.317216	1.280586	1.306960
00:00:00.165	1.309158	1.332601	1.319414
00:00:00.169	1.320879	1.331136	1.323810
00:00:00.169	1.279853	1.247619	1.306227
00:00:00.169	1.288645	1.227106	1.308425
00:00:00.169	1.309890	1.265934	1.305495
00:00:00.200	1.306227	1.274725	1.300366
00:00:00.200	1.321612	1.301099	1.302564
00:00:00.200	1.309158	1.311355	1.287179
00:00:00.200	1.308425	1.335531	1.298901
00:00:00.200	1.312088	1.360440	1.295238
00:00:00.201	1.317949	1.342857	1.286447
00:00:00.203	1.330403	1.335531	1.300366
00:00:00.203	1.317949	1.315018	1.310623
00:00:00.203	1.301832	1.301832	1.296703
00:00:00.203	1.303297	1.315018	1.322344
00:00:00.203	1.268132	1.290110	1.307692
00:00:00.203	1.285714	1.307692	1.315751
00:00:00.203	1.301099	1.320879	1.311355
00:00:00.203	1.323077	1.347985	1.316484
00:00:00.204	1.321612	1.338462	1.311355
00:00:00.204	1.327473	1.331868	1.310623
00:00:00.205	1.315751	1.326740	1.310623
00:00:00.205	1.326740	1.306227	1.306227
00:00:00.205	1.298901	1.287179	1.285714
00:00:00.206	1.293040	1.301832	1.306227
00:00:00.206	1.306960	1.307692	1.296703
00:00:00.206	1.323810	1.306227	1.298168
00:00:00.207	1.328938	1.326740	1.301832
00:00:00.207	1.316484	1.328938	1.291575
00:00:00.207	1.324542	1.322344	1.300366
00:00:00.208	1.313553	1.352381	1.310623
00:00:00.208	1.284982	1.347253	1.300366
00:00:00.208	1.305495	1.334799	1.317949
00:00:00.209	1.276923	1.268132	1.305495
00:00:00.209	1.271062	1.241758	1.312088
00:00:00.210	1.286447	1.236630	1.317949
00:00:00.210	1.307692	1.246154	1.317216
00:00:00.210	1.326740	1.219780	1.296703
00:00:00.211	1.378022	1.238095	1.295971
00:00:00.211	1.416117	1.264469	1.282051
00:00:00.211	1.358242	1.337729	1.291575
00:00:00.212	1.297436	1.363370	1.296703
00:00:00.212	1.242491	1.352381	1.300366
00:00:00.212	1.253480	1.323077	1.290110
00:00:00.213	1.298901	1.307692	1.294505
00:00:00.213	1.286447	1.306227	1.295971
00:00:00.213	1.279853	1.285714	1.294505
00:00:00.214	1.322344	1.298168	1.300366
00:00:00.214	1.320879	1.276923	1.315751
00:00:00.215	1.312821	1.293773	1.318681
00:00:00.215	1.310623	1.321612	1.323810
00:00:00.215	1.271062	1.315018	1.314286
00:00:00.216	1.300366	1.343590	1.311355
00:00:00.216	1.336264	1.346520	1.310623
00:00:00.216	1.337729	1.356044	1.295238
00:00:00.249	1.338462	1.318681	1.294505
00:00:00.249	1.335531	1.273993	1.292308
00:00:00.249	1.307692	1.254945	1.300366
00:00:00.250	1.271062	1.227106	1.290110
00:00:00.251	1.273260	1.267399	1.295971
00:00:00.251	1.278388	1.276923	1.288645
00:00:00.251	1.312088	1.294505	1.287912
00:00:00.251	1.291575	1.334066	1.295238
00:00:00.251	1.295238	1.344322	1.297436
00:00:00.252	1.284982	1.296703	1.293040
00:00:00.252	1.334066	1.302564	1.319414
00:00:00.252	1.345788	1.282051	1.315751
00:00:00.253	1.334066	1.279121	1.310623
00:00:00.253	1.319414	1.297436	1.319414
00:00:00.254	1.309890	1.289377	1.304762
00:00:00.254	1.322344	1.321612	1.308425
00:00:00.254	1.303297	1.320147	1.309158
00:00:00.255	1.295971	1.326007	1.300366
00:00:00.255	1.288645	1.334066	1.312088
00:00:00.255	1.295971	1.318681	1.292308
00:00:00.256	1.331868	1.344322	1.295238
00:00:00.256	1.322344	1.334066	1.283516
00:00:00.256	1.315751	1.332601	1.300366
00:00:00.257	1.307692	1.326740	1.298901
00:00:00.257	1.285714	1.306960	1.296703
00:00:00.257	1.313553	1.298168	1.306227
00:00:00.258	1.323810	1.256410	1.299634
00:00:00.258	1.306227	1.222711	1.306227
00:00:00.259	1.314286	1.260073	1.309890
00:00:00.259	1.315751	1.274725	1.310623
00:00:00.259	1.290110	1.287179	1.314286
00:00:00.260	1.301832	1.334799	1.314286
00:00:00.260	1.312821	1.329670	1.310623
00:00:00.260	1.311355	1.342857	1.303297
00:00:00.261	1.295971	1.353114	1.287179
00:00:00.261	1.297436	1.400733	1.296703
00:00:00.261	1.290842	1.375092	1.305495
00:00:00.263	1.295971	1.296703	1.303297
00:00:00.263	1.307692	1.209524	1.296703
00:00:00.263	1.339927	1.208791	1.300366
00:00:00.263	1.310623	1.208059	1.298901
00:00:00.263	1.310623	1.205128	1.295238
00:00:00.265	1.309158	1.231502	1.297436
00:00:00.265	1.315018	1.320147	1.297436
00:00:00.265	1.341392	1.408791	1.304029
00:00:00.265	1.367033	1.377289	1.309890
00:00:00.265	1.388278	1.323077	1.322344
00:00:00.265	1.335531	1.299634	1.323810
00:00:00.266	1.293040	1.319414	1.313553
00:00:00.266	1.222711	1.333333	1.304762
00:00:00.300	1.254945	1.348718	1.306227
00:00:00.300	1.283516	1.320147	1.290842
00:00:00.300	1.296703	1.298901	1.290110
00:00:00.300	1.304762	1.284249	1.282784
00:00:00.300	1.306227	1.314286	1.287179
00:00:00.300	1.314286	1.328938	1.302564
00:00:00.300	1.329670	1.326007	1.296703
00:00:00.301	1.339194	1.324542	1.310623
00:00:00.301	1.333333	1.307692	1.309158
00:00:00.301	1.312088	1.287912	1.295971
00:00:00.303	1.323810	1.304029	1.304029
00:00:00.303	1.342125	1.289377	1.320879
00:00:00.303	1.286447	1.250549	1.309890
00:00:00.303	1.194872	1.222711	1.315751
00:00:00.303	1.220513	1.233700	1.305495
00:00:00.304	1.235897	1.285714	1.310623
00:00:00.304	1.319414	1.331868	1.312088
00:00:00.304	1.437363	1.323810	1.311355
00:00:00.305	1.463736	1.323810	1.295238
00:00:00.305	1.435897	1.336264	1.289377
00:00:00.305	1.351648	1.336264	1.296703
00:00:00.306	1.273993	1.335531	1.295238
00:00:00.306	1.229304	1.333333	1.296703
00:00:00.306	1.238828	1.355311	1.309890
00:00:00.307	1.270330	1.367766	1.300366
00:00:00.307	1.306227	1.353846	1.306227
00:00:00.308	1.295238	1.339194	1.305495
00:00:00.308	1.285714	1.300366	1.312088
00:00:00.308	1.287179	1.258608	1.305495
00:00:00.309	1.293773	1.237363	1.298168
00:00:00.309	1.290110	1.237363	1.283516
00:00:00.309	1.303297	1.299634	1.329670
00:00:00.310	1.309158	1.354579	1.323810
00:00:00.310	1.328938	1.332601	1.314286
00:00:00.310	1.360440	1.323077	1.306960
00:00:00.311	1.350916	1.371429	1.297436
00:00:00.311	1.350183	1.470330	1.300366
00:00:00.311	1.343590	1.424908	1.297436
00:00:00.312	1.329670	1.274725	1.290110
00:00:00.312	1.330403	1.210256	1.304029
00:00:00.313	1.296703	1.171429	1.291575
00:00:00.313	1.271062	1.189744	1.287912
00:00:00.313	1.300366	1.212454	1.293773
00:00:00.314	1.287179	1.240293	1.276190
00:00:00.314	1.320879	1.295971	1.274725
00:00:00.314	1.329670	1.424908	1.286447
00:00:00.315	1.292308	1.459341	1.322344
00:00:00.315	1.290110	1.413919	1.376557
00:00:00.315	1.288645	1.306227	1.361905
00:00:00.316	1.293773	1.192674	1.353846
00:00:00.348	1.307692	1.178022	1.306227
00:00:00.348	1.291575	1.130403	1.284982
00:00:00.349	1.276190	1.153846	1.284249
00:00:00.349	1.265934	1.215385	1.281319
00:00:00.349	1.279853	1.304029	1.285714
00:00:00.350	1.308425	1.391209	1.293040
00:00:00.350	1.323077	1.411722	1.300366
00:00:00.350	1.339194	1.400000	1.309158
00:00:00.351	1.326740	1.357509	1.300366
00:00:00.351	1.326007	1.330403	1.297436
00:00:00.352	1.331868	1.309158	1.309890
00:00:00.352	1.342125	1.278388	1.309158
00:00:00.352	1.334066	1.274725	1.313553
00:00:00.353	1.320147	1.309158	1.313553
00:00:00.353	1.298901	1.305495	1.298901
00:00:00.353	1.311355	1.298901	1.309158
00:00:00.354	1.302564	1.290110	1.306227
00:00:00.355	1.304762	1.278388	1.309158
00:00:00.355	1.302564	1.249817	1.295971
00:00:00.355	1.298901	1.281319	1.293040
00:00:00.355	1.328938	1.317216	1.296703
00:00:00.355	1.352381	1.339927	1.300366
00:00:00.357	1.357509	1.375092	1.305495
00:00:00.357	1.314286	1.413919	1.293040
00:00:00.357	1.179487	1.454945	1.292308
00:00:00.357	1.150183	1.450549	1.308425
00:00:00.357	1.256410	1.357509	1.304029
00:00:00.360	1.406593	1.279121	1.313553
00:00:00.360	1.481319	1.238828	1.314286
00:00:00.360	1.468864	1.226374	1.312821
00:00:00.360	1.380220	1.224908	1.319414
00:00:00.360	1.276190	1.273260	1.309890
00:00:00.360	1.194872	1.272527	1.291575
00:00:00.360	1.225641	1.288645	1.309158
00:00:00.360	1.284982	1.279853	1.297436
00:00:00.362	1.320147	1.264469	1.294505
00:00:00.362	1.331136	1.322344	1.302564
00:00:00.362	1.331868	1.348718	1.295971
00:00:00.362	1.315018	1.328205	1.286447
00:00:00.362	1.331136	1.334066	1.302564
00:00:00.362	1.299634	1.363370	1.306960
00:00:00.365	1.291575	1.424176	1.308425
00:00:00.365	1.320879	1.526007	1.322344
00:00:00.365	1.318681	1.408059	1.300366
00:00:00.365	1.339927	1.281319	1.312821
00:00:00.365	1.290110	1.246154	1.325275
00:00:00.365	1.272527	1.248352	1.318681
00:00:00.365	1.288645	1.224176	1.317216
00:00:00.365	1.353114	1.199267	1.317216
00:00:00.366	1.361172	1.169963	1.308425
00:00:00.398	1.350183	1.293773	1.288645
00:00:00.398	1.293773	1.328938	1.285714
00:00:00.398	1.210989	1.223443	1.272527
00:00:00.399	1.218315	1.215385	1.280586
00:00:00.399	1.246886	1.231502	1.276923
00:00:00.399	1.287912	1.261538	1.300366
00:00:00.400	1.320879	1.222711	1.306227
00:00:00.400	1.321612	1.190476	1.304029
00:00:00.401	1.333333	1.292308	1.302564
00:00:00.401	1.323810	1.378755	1.304762
00:00:00.401	1.312088	1.389011	1.299634
00:00:00.402	1.345788	1.380220	1.313553
00:00:00.402	1.350916	1.350183	1.318681
00:00:00.402	1.336264	1.347253	1.316484
00:00:00.403	1.343590	1.340659	1.317949
00:00:00.403	1.339194	1.332601	1.300366
00:00:00.403	1.307692	1.320147	1.311355
00:00:00.404	1.278388	1.309158	1.304762
00:00:00.404	1.268132	1.333333	1.296703
00:00:00.404	1.296703	1.379487	1.306960
00:00:00.405	1.298901	1.357509	1.302564
00:00:00.405	1.293773	1.311355	1.305495
00:00:00.406	1.284982	1.279853	1.291575
00:00:00.406	1.314286	1.297436	1.296703
00:00:00.407	1.331136	1.315018	1.305495
00:00:00.407	1.330403	1.280586	1.304762
00:00:00.407	1.309158	1.289377	1.300366
00:00:00.407	1.291575	1.293773	1.302564
00:00:00.408	1.308425	1.301099	1.312821
00:00:00.408	1.305495	1.285714	1.308425
00:00:00.408	1.315751	1.272527	1.315751
00:00:00.409	1.312088	1.257143	1.316484
00:00:00.409	1.318681	1.265201	1.310623
00:00:00.410	1.321612	1.308425	1.312088
00:00:00.410	1.322344	1.331868	1.306227
00:00:00.410	1.329670	1.315751	1.309158
00:00:00.411	1.300366	1.320147	1.296703
00:00:00.411	1.301832	1.326740	1.283516
00:00:00.411	1.321612	1.336264	1.297436
00:00:00.412	1.331868	1.336264	1.286447
00:00:00.412	1.315751	1.319414	1.300366
00:00:00.412	1.317216	1.318681	1.300366
00:00:00.413	1.310623	1.314286	1.291575
00:00:00.413	1.309158	1.345788	1.310623
00:00:00.413	1.290110	1.323810	1.307692
00:00:00.414	1.279853	1.300366	1.308425
00:00:00.414	1.244689	1.289377	1.291575
00:00:00.415	1.253480	1.307692	1.306960
00:00:00.415	1.337729	1.301832	1.302564
00:00:00.415	1.370696	1.295971	1.298901
00:00:00.447	1.303297	1.293773	1.307692
00:00:00.448	1.287912	1.273993	1.300366
00:00:00.448	1.325275	1.287179	1.312821
00:00:00.448	1.380220	1.283516	1.291575
00:00:00.449	1.389744	1.308425	1.286447
00:00:00.449	1.350916	1.317216	1.290842
00:00:00.450	1.311355	1.306960	1.291575
00:00:00.450	1.299634	1.305495	1.297436
00:00:00.450	1.276923	1.295238	1.292308
00:00:00.451	1.270330	1.284982	1.298168
00:00:00.451	1.277656	1.295971	1.313553
00:00:00.451	1.286447	1.325275	1.321612
00:00:00.452	1.337729	1.347253	1.317949
00:00:00.452	1.282784	1.364103	1.322344
00:00:00.452	1.240293	1.352381	1.312088
00:00:00.453	1.281319	1.326740	1.296703
00:00:00.453	1.361905	1.309158	1.312821
00:00:00.455	1.347985	1.282051	1.297436
00:00:00.455	1.325275	1.245421	1.304762
00:00:00.455	1.325275	1.230037	1.298168
00:00:00.455	1.319414	1.252015	1.300366
00:00:00.455	1.287179	1.298901	1.300366
00:00:00.455	1.252747	1.325275	1.295238
00:00:00.457	1.224908	1.323810	1.303297
00:00:00.457	1.261538	1.310623	1.300366
00:00:00.457	1.296703	1.293040	1.300366
00:00:00.457	1.277656	1.290842	1.298168
00:00:00.457	1.246886	1.281319	1.300366
00:00:00.457	1.318681	1.268864	1.305495
00:00:00.460	1.609524	1.295971	1.312821
00:00:00.460	1.553114	1.314286	1.322344
00:00:00.460	1.333333	1.295238	1.309158
00:00:00.460	1.281319	1.321612	1.317949
00:00:00.460	1.265201	1.317216	1.312088
00:00:00.460	1.269597	1.316484	1.300366
00:00:00.460	1.238095	1.320147	1.290842
00:00:00.460	1.234432	1.324542	1.300366
00:00:00.461	1.252747	1.317949	1.300366
00:00:00.461	1.248352	1.318681	1.295971
00:00:00.461	1.271795	1.312088	1.304762
00:00:00.463	1.277656	1.320879	1.298168
00:00:00.463	1.273260	1.324542	1.285714
00:00:00.463	1.432234	1.316484	1.300366
00:00:00.463	1.378755	1.298168	1.305495
00:00:00.463	1.227839	1.304029	1.315018
00:00:00.464	1.280586	1.292308	1.306960
00:00:00.464	1.367766	1.287912	1.302564
00:00:00.464	1.378022	1.295238	1.312821
00:00:00.465	1.378755	1.291575	1.328938
00:00:00.465	1.304029	1.302564	1.293773
00:00:00.497	1.348718	1.315751	1.281319
00:00:00.498	1.333333	1.312088	1.305495
00:00:00.498	1.351648	1.339194	1.338462
00:00:00.498	1.231502	1.326740	1.306227
00:00:00.499	1.109890	1.323810	1.227106
00:00:00.499	1.317949	1.300366	1.213187
00:00:00.499	1.427839	1.291575	1.286447
00:00:00.500	1.330403	1.307692	1.320879
00:00:00.500	1.254945	1.301832	1.330403
00:00:00.500	1.257143	1.312821	1.326007
00:00:00.501	1.298901	1.304762	1.303297
00:00:00.501	1.471795	1.295238	1.321612
00:00:00.501	1.401465	1.286447	1.323810
00:00:00.502	1.315751	1.275458	1.298901
00:00:00.502	1.325275	1.286447	1.318681
00:00:00.503	1.305495	1.283516	1.334799
00:00:00.503	1.329670	1.289377	1.331136
00:00:00.503	1.282051	1.317949	1.329670
00:00:00.504	1.250549	1.339927	1.333333
00:00:00.504	1.234432	1.343590	1.323810
00:00:00.504	1.279853	1.336264	1.300366
00:00:00.505	1.271795	1.295971	1.282784
00:00:00.505	1.293040	1.289377	1.292308
00:00:00.505	1.327473	1.290110	1.302564
00:00:00.506	1.326740	1.278388	1.306960
00:00:00.506	1.316484	1.251282	1.300366
00:00:00.506	1.260806	1.274725	1.294505
00:00:00.507	1.271062	1.308425	1.294505
00:00:00.507	1.270330	1.327473	1.295238
00:00:00.508	1.232967	1.301832	1.308425
00:00:00.508	1.237363	1.247619	1.290842
00:00:00.508	1.200000	1.252747	1.304762
00:00:00.509	1.362637	1.272527	1.347253
00:00:00.509	1.695971	1.326740	1.330403
00:00:00.509	1.463004	1.350916	1.327473
00:00:00.510	1.305495	1.397070	1.340659
00:00:00.510	1.238828	1.394139	1.323077
00:00:00.510	1.260073	1.386081	1.302564
00:00:00.512	1.168498	1.381685	1.300366
00:00:00.512	1.216850	1.364835	1.292308
00:00:00.512	1.320879	1.343590	1.282051
00:00:00.512	1.436630	1.295238	1.288645
00:00:00.512	1.471795	1.236630	1.291575
00:00:00.513	1.400733	1.235897	1.263736
00:00:00.513	1.402930	1.236630	1.282784
00:00:00.513	1.443956	1.239560	1.290110
00:00:00.514	1.320879	1.273260	1.304029
00:00:00.514	1.296703	1.294505	1.321612
00:00:00.514	1.218315	1.302564	1.300366
00:00:00.515	1.172161	1.400000	1.304029
00:00:00.547	1.294505	1.386081	1.298901
00:00:00.547	1.320147	1.298168	1.290842
00:00:00.548	1.295238	1.287179	1.299634
00:00:00.548	1.236630	1.249817	1.296703
00:00:00.548	1.164835	1.241758	1.309158
00:00:00.549	1.238095	1.263004	1.306960
00:00:00.549	1.221978	1.254945	1.296703
00:00:00.549	1.196337	1.327473	1.310623
00:00:00.551	1.462271	1.415385	1.314286
00:00:00.551	1.457143	1.362637	1.318681
00:00:00.551	1.343590	1.323810	1.319414
00:00:00.554	1.315018	1.276923	1.303297
00:00:00.554	1.338462	1.242491	1.290842
00:00:00.554	1.361172	1.252747	1.290110
00:00:00.554	1.320879	1.307692	1.291575
00:00:00.554	1.316484	1.362637	1.303297
00:00:00.554	1.310623	1.370696	1.306960
00:00:00.554	1.308425	1.384615	1.314286
00:00:00.554	1.304029	1.375824	1.312821
00:00:00.554	1.294505	1.351648	1.307692
00:00:00.554	1.315751	1.331136	1.315751
00:00:00.554	1.315751	1.290110	1.300366
00:00:00.557	1.317949	1.316484	1.295238
00:00:00.557	1.315018	1.307692	1.298168
00:00:00.557	1.302564	1.271062	1.298168
00:00:00.557	1.288645	1.241026	1.295238
00:00:00.557	1.308425	1.277656	1.299634
00:00:00.557	1.312088	1.257875	1.301832
00:00:00.557	1.312821	1.245421	1.296703
00:00:00.557	1.293040	1.222711	1.288645
00:00:00.558	1.293040	1.257143	1.304762
00:00:00.558	1.304762	1.301832	1.308425
00:00:00.558	1.315018	1.353114	1.300366
00:00:00.559	1.311355	1.372161	1.313553
00:00:00.559	1.313553	1.367766	1.316484
00:00:00.559	1.312821	1.382418	1.298168
00:00:00.560	1.317949	1.363370	1.304762
00:00:00.560	1.317216	1.317949	1.308425
00:00:00.560	1.306227	1.242491	1.287912
00:00:00.561	1.320147	1.220513	1.297436
00:00:00.561	1.317949	1.206593	1.297436
00:00:00.562	1.297436	1.262271	1.298168
00:00:00.562	1.305495	1.299634	1.312821
00:00:00.562	1.304762	1.287179	1.299634
00:00:00.563	1.314286	1.312821	1.298901
00:00:00.564	1.311355	1.421245	1.298901
00:00:00.564	1.301832	1.431502	1.297436
00:00:00.564	1.300366	1.367766	1.308425
00:00:00.564	1.311355	1.308425	1.309890
00:00:00.564	1.304762	1.167033	1.300366
00:00:00.597	1.281319	1.105495	1.286447
00:00:00.597	1.304029	1.129670	1.290842
00:00:00.597	1.301832	1.130403	1.276923
00:00:00.598	1.316484	1.241758	1.312821
00:00:00.598	1.304029	1.347253	1.300366
00:00:00.598	1.303297	1.391209	1.303297
00:00:00.599	1.325275	1.408791	1.304029
00:00:00.599	1.312821	1.410989	1.302564
00:00:00.599	1.310623	1.388278	1.306960
00:00:00.600	1.315751	1.371429	1.314286
00:00:00.600	1.317949	1.338462	1.318681
00:00:00.601	1.320147	1.302564	1.318681
00:00:00.601	1.312088	1.361905	1.307692
00:00:00.601	1.301832	1.341392	1.304762
00:00:00.602	1.310623	1.273993	1.315018
00:00:00.602	1.304762	1.222711	1.303297
00:00:00.602	1.301099	1.254212	1.297436
00:00:00.603	1.306960	1.343590	1.312088
00:00:00.603	1.312821	1.353114	1.300366
00:00:00.603	1.317216	1.290110	1.306227
00:00:00.604	1.302564	1.246154	1.279853
00:00:00.604	1.320147	1.315018	1.281319
00:00:00.604	1.312088	1.350916	1.293040
00:00:00.605	1.306227	1.323810	1.292308
00:00:00.605	1.309158	1.326007	1.298901
00:00:00.606	1.307692	1.330403	1.303297
00:00:00.606	1.306227	1.290842	1.297436
00:00:00.606	1.304029	1.258608	1.301832
00:00:00.607	1.312088	1.273993	1.315018
00:00:00.607	1.306227	1.280586	1.309158
00:00:00.607	1.306960	1.296703	1.320879
00:00:00.608	1.309158	1.296703	1.308425
00:00:00.608	1.302564	1.296703	1.317949
00:00:00.608	1.309890	1.300366	1.313553
00:00:00.609	1.305495	1.328938	1.302564
00:00:00.609	1.314286	1.350183	1.317949
00:00:00.609	1.314286	1.335531	1.300366
00:00:00.610	1.309890	1.317949	1.290842
00:00:00.610	1.316484	1.323077	1.303297
00:00:00.611	1.318681	1.298168	1.293773
00:00:00.611	1.313553	1.280586	1.295238
00:00:00.611	1.318681	1.277656	1.298901
00:00:00.612	1.310623	1.292308	1.300366
00:00:00.612	1.314286	1.315018	1.308425
00:00:00.612	1.315018	1.317949	1.304029
00:00:00.614	1.315751	1.314286	1.314286
00:00:00.614	1.312088	1.314286	1.315018
00:00:00.614	1.309158	1.306960	1.312088
00:00:00.614	1.295238	1.296703	1.307692
00:00:00.614	1.302564	1.306960	1.312821
00:00:00.648	1.307692	1.296703	1.309890
00:00:00.648	1.309158	1.300366	1.304762
00:00:00.648	1.312088	1.320147	1.303297
00:00:00.648	1.312088	1.323810	1.300366
00:00:00.648	1.317216	1.326740	1.299634
00:00:00.648	1.310623	1.334799	1.300366
00:00:00.648	1.312088	1.338462	1.293773
00:00:00.652	1.322344	1.336996	1.302564
00:00:00.652	1.318681	1.312088	1.299634
00:00:00.652	1.310623	1.296703	1.300366
00:00:00.652	1.303297	1.285714	1.300366
00:00:00.652	1.298901	1.288645	1.299634
00:00:00.652	1.317216	1.301832	1.314286
00:00:00.652	1.306227	1.273993	1.302564
00:00:00.652	1.307692	1.268132	1.300366
00:00:00.652	1.310623	1.291575	1.311355
00:00:00.652	1.304762	1.275458	1.308425
00:00:00.652	1.305495	1.279853	1.296703
00:00:00.653	1.309158	1.302564	1.300366
00:00:00.653	1.306960	1.316484	1.297436
00:00:00.653	1.314286	1.326007	1.298901
00:00:00.654	1.317216	1.330403	1.304029
00:00:00.654	1.315751	1.320147	1.296703
00:00:00.655	1.311355	1.324542	1.298168
00:00:00.655	1.318681	1.312088	1.294505
00:00:00.655	1.304762	1.300366	1.286447
00:00:00.656	1.315751	1.317949	1.304029
00:00:00.656	1.309890	1.319414	1.304029
00:00:00.656	1.303297	1.308425	1.312088
00:00:00.657	1.316484	1.310623	1.317949
00:00:00.657	1.309890	1.327473	1.306227
00:00:00.657	1.311355	1.334799	1.312821
00:00:00.658	1.314286	1.308425	1.309890
00:00:00.658	1.313553	1.284982	1.326007
00:00:00.658	1.307692	1.276923	1.317216
00:00:00.659	1.304762	1.358974	1.306960
00:00:00.659	1.296703	1.476190	1.298168
00:00:00.660	1.313553	1.418315	1.300366
00:00:00.660	1.306227	1.315018	1.279853
00:00:00.660	1.296703	1.232234	1.284982
00:00:00.661	1.310623	1.161905	1.290842
00:00:00.661	1.314286	1.160440	1.289377
00:00:00.661	1.317216	1.156044	1.287179
00:00:00.662	1.319414	1.169231	1.295971
00:00:00.662	1.306960	1.199267	1.293040
00:00:00.662	1.309890	1.298168	1.318681
00:00:00.663	1.305495	1.331868	1.310623
00:00:00.663	1.315751	1.330403	1.319414
00:00:00.663	1.315751	1.336996	1.322344
00:00:00.664	1.310623	1.356044	1.312088
00:00:00.696	1.301832	1.339927	1.306227
00:00:00.696	1.310623	1.340659	1.306960
00:00:00.697	1.305495	1.322344	1.300366
00:00:00.697	1.312821	1.334799	1.304029
00:00:00.697	1.316484	1.315751	1.306227
00:00:00.698	1.311355	1.298901	1.293773
00:00:00.698	1.308425	1.316484	1.300366
00:00:00.699	1.314286	1.364103	1.302564
00:00:00.699	1.307692	1.362637	1.286447
00:00:00.700	1.316484	1.323077	1.298901
00:00:00.700	1.313553	1.299634	1.295238
00:00:00.700	1.314286	1.350916	1.298168
00:00:00.700	1.314286	1.380220	1.311355
00:00:00.701	1.307692	1.401465	1.312088
00:00:00.701	1.301099	1.344322	1.315018
00:00:00.701	1.300366	1.265934	1.316484
00:00:00.702	1.303297	1.227106	1.310623
00:00:00.702	1.312088	1.216850	1.313553
00:00:00.702	1.312088	1.231502	1.300366
00:00:00.703	1.304762	1.242491	1.294505
00:00:00.703	1.307692	1.242491	1.289377
00:00:00.704	1.312088	1.293773	1.285714
00:00:00.704	1.302564	1.369231	1.294505
00:00:00.704	1.317216	1.367033	1.305495
00:00:00.705	1.313553	1.314286	1.306960
00:00:00.705	1.299634	1.270330	1.304762
00:00:00.705	1.309158	1.287912	1.306227
00:00:00.706	1.320147	1.315018	1.308425
00:00:00.706	1.315751	1.328205	1.314286
00:00:00.706	1.328205	1.328205	1.326007
00:00:00.707	1.294505	1.286447	1.315018
00:00:00.707	1.290110	1.295238	1.311355
00:00:00.707	1.318681	1.312088	1.312821
00:00:00.708	1.287179	1.304762	1.304029
00:00:00.708	1.314286	1.320147	1.313553
00:00:00.712	1.312821	1.312088	1.314286
00:00:00.712	1.308425	1.304762	1.309158
00:00:00.712	1.304762	1.321612	1.311355
00:00:00.712	1.307692	1.310623	1.299634
00:00:00.712	1.307692	1.306960	1.300366
00:00:00.712	1.316484	1.312088	1.285714
00:00:00.712	1.317949	1.326007	1.295238
00:00:00.712	1.309158	1.322344	1.287912
00:00:00.712	1.319414	1.309890	1.300366
00:00:00.712	1.313553	1.298901	1.293040
00:00:00.712	1.315751	1.298901	1.298901
00:00:00.712	1.309158	1.294505	1.310623
00:00:00.715	1.306960	1.282051	1.300366
00:00:00.715	1.306960	1.278388	1.306960
00:00:00.715	1.295971	1.269597	1.298168
00:00:00.747	1.300366	1.288645	1.298168
00:00:00.747	1.312088	1.318681	1.318681
00:00:00.747	1.317216	1.331868	1.318681
00:00:00.747	1.317949	1.317949	1.304762
00:00:00.747	1.315751	1.321612	1.300366
00:00:00.748	1.305495	1.299634	1.298168
00:00:00.748	1.308425	1.287179	1.286447
00:00:00.748	1.306227	1.268132	1.273993
00:00:00.749	1.311355	1.277656	1.284982
00:00:00.749	1.322344	1.312821	1.294505
00:00:00.749	1.307692	1.343590	1.300366
00:00:00.750	1.306227	1.329670	1.295238
00:00:00.750	1.315018	1.340659	1.315751
00:00:00.750	1.304029	1.314286	1.304029
00:00:00.751	1.312821	1.294505	1.320879
00:00:00.751	1.310623	1.250549	1.315751
00:00:00.752	1.306227	1.243223	1.320879
00:00:00.752	1.310623	1.276923	1.320147
00:00:00.752	1.304762	1.286447	1.298168
00:00:00.753	1.312088	1.304762	1.310623
00:00:00.753	1.315018	1.323810	1.306960
00:00:00.753	1.299634	1.320147	1.283516
00:00:00.754	1.312088	1.347985	1.299634
00:00:00.754	1.312088	1.310623	1.291575
00:00:00.754	1.315751	1.298168	1.287912
00:00:00.755	1.305495	1.303297	1.297436
00:00:00.755	1.320879	1.279853	1.315751
00:00:00.755	1.309158	1.278388	1.304029
00:00:00.756	1.315018	1.282784	1.300366
00:00:00.756	1.306960	1.272527	1.304762
00:00:00.756	1.307692	1.276923	1.315018
00:00:00.757	1.299634	1.295238	1.319414
00:00:00.757	1.298901	1.317949	1.303297
00:00:00.758	1.306227	1.368498	1.304762
00:00:00.758	1.312821	1.372161	1.310623
00:00:00.758	1.309158	1.320147	1.301832
00:00:00.759	1.315751	1.298168	1.306960
00:00:00.759	1.307692	1.269597	1.293040
00:00:00.759	1.308425	1.267399	1.298168
00:00:00.760	1.312088	1.260806	1.293773
00:00:00.760	1.312088	1.270330	1.286447
00:00:00.760	1.320879	1.302564	1.298901
00:00:00.761	1.314286	1.309890	1.300366
00:00:00.761	1.307692	1.320147	1.293773
00:00:00.761	1.313553	1.331868	1.298168
00:00:00.762	1.305495	1.328205	1.292308
00:00:00.762	1.311355	1.324542	1.309158
00:00:00.763	1.315751	1.293773	1.317216
00:00:00.763	1.308425	1.267399	1.308425
00:00:00.763	1.308425	1.276190	1.320879
00:00:00.795	1.312821	1.297436	1.315018
00:00:00.796	1.304762	1.306227	1.300366
00:00:00.796	1.307692	1.338462	1.306227
00:00:00.797	1.306960	1.377289	1.298168
00:00:00.797	1.308425	1.385348	1.304029
00:00:00.797	1.307692	1.355311	1.298168
00:00:00.798	1.309158	1.342857	1.295971
00:00:00.798	1.311355	1.339194	1.300366
00:00:00.798	1.302564	1.320147	1.300366
00:00:00.799	1.311355	1.306227	1.300366
00:00:00.799	1.306960	1.291575	1.305495
00:00:00.799	1.307692	1.300366	1.307692
00:00:00.800	1.304029	1.294505	1.303297
00:00:00.800	1.309158	1.287179	1.323810
00:00:00.800	1.306227	1.263736	1.313553
00:00:00.801	1.309158	1.272527	1.317216
00:00:00.801	1.300366	1.277656	1.305495
00:00:00.802	1.299634	1.288645	1.300366
00:00:00.802	1.309158	1.304762	1.300366
00:00:00.802	1.304762	1.284982	1.282784
00:00:00.803	1.314286	1.309158	1.294505
00:00:00.803	1.306960	1.320147	1.286447
00:00:00.804	1.313553	1.320879	1.288645
00:00:00.804	1.309158	1.322344	1.284982
00:00:00.804	1.316484	1.323077	1.299634
00:00:00.804	1.309890	1.322344	1.291575
00:00:00.806	1.312088	1.318681	1.291575
00:00:00.806	1.307692	1.321612	1.290110
00:00:00.806	1.309158	1.319414	1.296703
00:00:00.806	1.311355	1.304029	1.304762
00:00:00.806	1.306960	1.293773	1.314286
00:00:00.807	1.309158	1.293040	1.326740
00:00:00.807	1.307692	1.291575	1.323077
00:00:00.807	1.309890	1.283516	1.315751
00:00:00.808	1.310623	1.273260	1.317216
00:00:00.808	1.304762	1.268864	1.308425
00:00:00.808	1.311355	1.290842	1.312821
00:00:00.809	1.304762	1.311355	1.300366
00:00:00.809	1.318681	1.330403	1.299634
00:00:00.809	1.315018	1.322344	1.287912
00:00:00.812	1.316484	1.343590	1.300366
00:00:00.812	1.316484	1.345788	1.298168
00:00:00.812	1.306227	1.342857	1.300366
00:00:00.812	1.315751	1.331136	1.295971
00:00:00.812	1.301099	1.308425	1.293773
00:00:00.812	1.312088	1.304029	1.308425
00:00:00.812	1.306960	1.293773	1.308425
00:00:00.812	1.308425	1.295238	1.309158
00:00:00.813	1.309158	1.296703	1.312088
00:00:00.813	1.310623	1.301832	1.318681
00:00:00.845	1.314286	1.317216	1.318681
00:00:00.846	1.309158	1.315751	1.312821
00:00:00.846	1.311355	1.313553	1.317949
00:00:00.846	1.318681	1.302564	1.313553
00:00:00.847	1.310623	1.311355	1.304762
00:00:00.847	1.320879	1.352381	1.309158
00:00:00.847	1.321612	1.348718	1.300366
00:00:00.848	1.306227	1.329670	1.290842
00:00:00.848	1.316484	1.301832	1.299634
00:00:00.848	1.312088	1.279853	1.290842
00:00:00.849	1.302564	1.280586	1.293773
00:00:00.849	1.314286	1.300366	1.298168
00:00:00.849	1.306227	1.288645	1.290110
00:00:00.850	1.299634	1.287179	1.309158
00:00:00.850	1.311355	1.305495	1.306960
00:00:00.851	1.298901	1.279121	1.304762
00:00:00.851	1.299634	1.269597	1.310623
00:00:00.851	1.306227	1.293040	1.300366
00:00:00.852	1.295971	1.308425	1.305495
00:00:00.852	1.315018	1.330403	1.307692
00:00:00.852	1.312088	1.307692	1.306227
00:00:00.853	1.311355	1.289377	1.300366
00:00:00.853	1.287179	1.298901	1.297436
00:00:00.853	1.311355	1.314286	1.298168
00:00:00.854	1.306960	1.307692	1.299634
00:00:00.854	1.312821	1.301099	1.300366
00:00:00.854	1.312088	1.276923	1.288645
00:00:00.855	1.319414	1.287912	1.296703
00:00:00.855	1.320879	1.326740	1.302564
00:00:00.857	1.321612	1.326007	1.300366
00:00:00.857	1.315751	1.314286	1.311355
00:00:00.857	1.312088	1.322344	1.304029
00:00:00.857	1.319414	1.339194	1.313553
00:00:00.857	1.325275	1.328938	1.322344
00:00:00.857	1.315018	1.317949	1.323077
00:00:00.858	1.296703	1.301099	1.323077
00:00:00.858	1.301099	1.290110	1.320147
00:00:00.858	1.296703	1.303297	1.315751
00:00:00.859	1.284249	1.337729	1.298901
00:00:00.859	1.292308	1.332601	1.293773
00:00:00.860	1.304029	1.326740	1.288645
00:00:00.860	1.306227	1.323810	1.287179
00:00:00.860	1.309158	1.315751	1.290110
00:00:00.861	1.304762	1.316484	1.300366
00:00:00.861	1.308425	1.339927	1.300366
00:00:00.861	1.306227	1.324542	1.300366
00:00:00.862	1.305495	1.295238	1.306960
00:00:00.862	1.321612	1.274725	1.309890
00:00:00.862	1.323810	1.230769	1.297436
00:00:00.863	1.317216	1.205861	1.298168
00:00:00.895	1.314286	1.232234	1.300366
00:00:00.895	1.308425	1.230037	1.295238
00:00:00.896	1.312088	1.241026	1.310623
00:00:00.896	1.315751	1.275458	1.300366
00:00:00.896	1.311355	1.324542	1.304029
00:00:00.897	1.312088	1.361905	1.304029
00:00:00.897	1.310623	1.383150	1.297436
00:00:00.897	1.308425	1.394872	1.295971
00:00:00.898	1.310623	1.408059	1.288645
00:00:00.898	1.308425	1.359707	1.282051
00:00:00.898	1.311355	1.306960	1.289377
00:00:00.899	1.310623	1.296703	1.299634
00:00:00.899	1.303297	1.263736	1.288645
00:00:00.900	1.310623	1.243223	1.304762
00:00:00.900	1.300366	1.222711	1.298901
00:00:00.900	1.306227	1.248352	1.304029
00:00:00.902	1.312088	1.284982	1.312821
00:00:00.902	1.312088	1.301832	1.312821
00:00:00.902	1.301832	1.315018	1.315751
00:00:00.904	1.312821	1.317216	1.320147
00:00:00.904	1.320147	1.323810	1.316484
00:00:00.904	1.317949	1.350916	1.313553
00:00:00.904	1.317216	1.346520	1.303297
00:00:00.904	1.314286	1.345055	1.300366
00:00:00.904	1.312821	1.350183	1.298168
00:00:00.904	1.317949	1.352381	1.309158
00:00:00.904	1.310623	1.340659	1.301832
00:00:00.905	1.315018	1.339194	1.305495
00:00:00.905	1.314286	1.315751	1.302564
00:00:00.905	1.308425	1.298901	1.309890
00:00:00.908	1.304762	1.309890	1.313553
00:00:00.908	1.308425	1.321612	1.317216
00:00:00.908	1.300366	1.291575	1.318681
00:00:00.908	1.309890	1.264469	1.322344
00:00:00.908	1.294505	1.260073	1.314286
00:00:00.908	1.310623	1.276190	1.310623
00:00:00.909	1.315018	1.305495	1.306960
00:00:00.910	1.312088	1.318681	1.310623
00:00:00.910	1.312088	1.350916	1.299634
00:00:00.910	1.306227	1.317949	1.291575
00:00:00.910	1.317216	1.290110	1.300366
00:00:00.910	1.314286	1.256410	1.296703
00:00:00.910	1.312821	1.265934	1.294505
00:00:00.910	1.315018	1.287912	1.294505
00:00:00.911	1.304029	1.287179	1.293773
00:00:00.911	1.315751	1.329670	1.306960
00:00:00.911	1.316484	1.361172	1.309158
00:00:00.912	1.302564	1.343590	1.309890
00:00:00.912	1.306227	1.323810	1.311355
00:00:00.912	1.304762	1.308425	1.304762
00:00:00.945	1.310623	1.309158	1.322344
00:00:00.945	1.304762	1.291575	1.302564
00:00:00.945	1.300366	1.298901	1.302564
00:00:00.946	1.305495	1.277656	1.296703
00:00:00.946	1.311355	1.280586	1.294505
00:00:00.946	1.309890	1.308425	1.299634
00:00:00.947	1.300366	1.316484	1.296703
00:00:00.947	1.308425	1.306227	1.296703
00:00:00.947	1.311355	1.312821	1.294505
00:00:00.948	1.313553	1.315018	1.282784
00:00:00.948	1.312821	1.317216	1.301832
00:00:00.949	1.312088	1.302564	1.308425
00:00:00.949	1.304762	1.268864	1.300366
00:00:00.949	1.313553	1.290842	1.314286
00:00:00.950	1.312821	1.303297	1.317949
00:00:00.950	1.301832	1.303297	1.323077
00:00:00.950	1.296703	1.305495	1.312088
00:00:00.951	1.310623	1.323077	1.328938
00:00:00.951	1.306960	1.333333	1.323077
00:00:00.951	1.306227	1.300366	1.312821
00:00:00.952	1.303297	1.241026	1.304029
00:00:00.952	1.314286	1.249084	1.304029
00:00:00.953	1.312088	1.280586	1.306960
00:00:00.953	1.317216	1.299634	1.305495
00:00:00.953	1.316484	1.300366	1.303297
00:00:00.954	1.312088	1.281319	1.296703
00:00:00.954	1.311355	1.308425	1.308425
00:00:00.954	1.320879	1.345055	1.306227
00:00:00.955	1.320879	1.355311	1.315018
00:00:00.955	1.311355	1.325275	1.308425
00:00:00.955	1.317216	1.294505	1.310623
00:00:00.956	1.307692	1.271062	1.313553
00:00:00.956	1.303297	1.279121	1.312821
00:00:00.956	1.309890	1.293040	1.317216
00:00:00.957	1.309890	1.306960	1.309890
00:00:00.957	1.298901	1.299634	1.297436
00:00:00.958	1.295238	1.312088	1.295238
00:00:00.958	1.300366	1.339194	1.290842
00:00:00.958	1.303297	1.357509	1.292308
00:00:00.959	1.313553	1.370696	1.300366
00:00:00.959	1.312088	1.342125	1.291575
00:00:00.959	1.310623	1.342857	1.312821
00:00:00.960	1.317949	1.330403	1.298901
00:00:00.961	1.301832	1.295238	1.291575
00:00:00.961	1.316484	1.301832	1.308425
00:00:00.961	1.304762	1.290842	1.306960
00:00:00.961	1.309158	1.271062	1.312088
00:00:00.961	1.307692	1.265201	1.310623
00:00:00.962	1.295971	1.254945	1.300366
00:00:00.962	1.309890	1.268132	1.307692
