timestamp	ch1	ch2	ch3
00:00:00.000	1.260806	1.365568	1.343590
00:00:00.000	1.203663	1.318681	1.374359
00:00:00.001	1.123810	1.323810	1.359707
00:00:00.001	1.042491	1.296703	1.339194
00:00:00.001	1.016850	1.364835	1.328205
00:00:00.002	1.095238	1.379487	1.353846
00:00:00.002	1.252747	1.367766	1.378022
00:00:00.002	1.401465	1.417582	1.369231
00:00:00.003	1.484249	1.396337	1.362637
00:00:00.003	1.386813	1.353846	1.328205
00:00:00.003	1.376557	1.430037	1.292308
00:00:00.004	1.424176	1.358974	1.288645
00:00:00.004	1.454945	1.252747	1.282051
00:00:00.004	1.476923	1.172161	1.282784
00:00:00.037	1.438095	1.063736	1.263736
00:00:00.037	1.372161	1.072527	1.265201
00:00:00.037	1.214652	1.182418	1.234432
00:00:00.039	1.166300	1.290842	1.245421
00:00:00.039	1.107692	1.366300	1.238095
00:00:00.039	1.203663	1.415385	1.260073
00:00:00.041	1.340659	1.401465	1.276923
00:00:00.041	1.325275	1.334799	1.284982
00:00:00.041	1.323810	1.387546	1.317216
00:00:00.041	1.324542	1.483516	1.275458
00:00:00.041	1.323077	1.415385	1.280586
00:00:00.041	1.323077	1.293773	1.287179
00:00:00.041	1.316484	1.176557	1.304762
00:00:00.041	1.334066	1.150916	1.313553
00:00:00.042	1.315751	1.227839	1.305495
00:00:00.042	1.294505	1.365568	1.315751
00:00:00.042	1.331136	1.276190	1.300366
00:00:00.044	1.399267	1.139927	1.298901
00:00:00.044	1.446886	1.050549	1.295238
00:00:00.044	1.417582	1.140659	1.281319
00:00:00.044	1.380220	1.473260	1.299634
00:00:00.044	1.323810	1.557509	1.316484
00:00:00.045	1.196337	1.321612	1.295238
00:00:00.045	1.128205	1.134066	1.337729
00:00:00.045	1.182418	1.104029	1.342125
00:00:00.046	1.258608	1.188278	1.338462
00:00:00.046	1.307692	1.194872	1.328205
00:00:00.046	1.347985	1.334066	1.339194
00:00:00.047	1.310623	1.292308	1.303297
00:00:00.047	1.282051	1.370696	1.289377
00:00:00.047	1.275458	1.434432	1.265934
00:00:00.048	1.295971	1.471062	1.304029
00:00:00.048	1.341392	1.425641	1.323810
00:00:00.048	1.336996	1.391941	1.322344
00:00:00.049	1.336996	1.367033	1.306227
00:00:00.049	1.331868	1.332601	1.290110
00:00:00.050	1.334066	1.368498	1.293773
00:00:00.050	1.336996	1.413187	1.306227
00:00:00.050	1.326740	1.435165	1.298901
00:00:00.051	1.316484	1.427839	1.297436
00:00:00.051	1.328938	1.424908	1.297436
00:00:00.051	1.315751	1.350183	1.295238
00:00:00.052	1.320879	1.287179	1.295238
00:00:00.052	1.317216	1.261538	1.288645
00:00:00.052	1.314286	1.272527	1.311355
00:00:00.053	1.317216	1.326007	1.318681
00:00:00.053	1.292308	1.326740	1.315751
00:00:00.054	1.303297	1.315751	1.326007
00:00:00.055	1.267399	1.246886	1.300366
00:00:00.055	1.235165	1.267399	1.302564
00:00:00.086	1.264469	1.271062	1.297436
00:00:00.087	1.306227	1.308425	1.303297
00:00:00.087	1.366300	1.293773	1.296703
00:00:00.087	1.397070	1.261538	1.304029
00:00:00.088	1.391941	1.245421	1.287912
00:00:00.088	1.350183	1.253480	1.290110
00:00:00.089	1.282051	1.295971	1.290842
00:00:00.089	1.252015	1.290842	1.299634
00:00:00.089	1.253480	1.320879	1.299634
00:00:00.090	1.304029	1.334066	1.306227
00:00:00.090	1.322344	1.375824	1.313553
00:00:00.090	1.307692	1.391209	1.320147
00:00:00.091	1.309158	1.298168	1.317216
00:00:00.091	1.306227	1.230037	1.298168
00:00:00.091	1.311355	1.271062	1.315751
00:00:00.092	1.289377	1.277656	1.298168
00:00:00.092	1.293040	1.261538	1.285714
00:00:00.093	1.304029	1.246886	1.290110
00:00:00.093	1.312088	1.212454	1.283516
00:00:00.093	1.317216	1.233700	1.269597
00:00:00.094	1.297436	1.288645	1.272527
00:00:00.094	1.293040	1.310623	1.296703
00:00:00.094	1.305495	1.284249	1.298901
00:00:00.095	1.283516	1.274725	1.299634
00:00:00.095	1.257143	1.296703	1.309158
00:00:00.095	1.312088	1.307692	1.312821
00:00:00.096	1.395604	1.320879	1.323810
00:00:00.096	1.425641	1.312088	1.322344
00:00:00.096	1.402198	1.306227	1.322344
00:00:00.097	1.308425	1.317216	1.323810
00:00:00.097	1.235897	1.312821	1.306960
00:00:00.098	1.237363	1.304762	1.304762
00:00:00.098	1.284982	1.312088	1.313553
00:00:00.098	1.296703	1.309890	1.295238
00:00:00.099	1.279853	1.308425	1.295971
00:00:00.099	1.257875	1.317949	1.289377
00:00:00.099	1.227839	1.312821	1.290842
00:00:00.100	1.264469	1.315018	1.289377
00:00:00.100	1.305495	1.306960	1.283516
00:00:00.100	1.343590	1.310623	1.304762
00:00:00.101	1.333333	1.309890	1.297436
00:00:00.101	1.334066	1.306960	1.307692
00:00:00.101	1.370696	1.303297	1.303297
00:00:00.104	1.367033	1.304762	1.308425
00:00:00.104	1.345788	1.311355	1.316484
00:00:00.104	1.320879	1.306227	1.312088
00:00:00.104	1.303297	1.309890	1.314286
00:00:00.104	1.312088	1.320879	1.320147
00:00:00.104	1.334066	1.312821	1.306227
00:00:00.104	1.323810	1.301832	1.307692
00:00:00.138	1.309890	1.304029	1.298901
00:00:00.138	1.327473	1.293773	1.300366
00:00:00.138	1.312821	1.309158	1.304762
00:00:00.138	1.281319	1.306227	1.288645
00:00:00.141	1.286447	1.342857	1.302564
00:00:00.141	1.292308	1.370696	1.304029
00:00:00.141	1.277656	1.371429	1.310623
00:00:00.141	1.304762	1.331868	1.306227
00:00:00.141	1.298168	1.282784	1.306227
00:00:00.141	1.320879	1.279853	1.312088
00:00:00.141	1.320147	1.295238	1.317216
00:00:00.141	1.306227	1.253480	1.320147
00:00:00.141	1.303297	1.197802	1.313553
00:00:00.141	1.297436	1.219780	1.306960
00:00:00.141	1.272527	1.321612	1.304762
00:00:00.143	1.289377	1.366300	1.301832
00:00:00.143	1.353114	1.356044	1.303297
00:00:00.143	1.381685	1.324542	1.301099
00:00:00.143	1.363370	1.317949	1.309158
00:00:00.143	1.313553	1.307692	1.304029
00:00:00.143	1.267399	1.262271	1.292308
00:00:00.144	1.293040	1.254945	1.306227
00:00:00.144	1.328205	1.252747	1.303297
00:00:00.144	1.341392	1.300366	1.306960
00:00:00.145	1.302564	1.336996	1.300366
00:00:00.145	1.276923	1.303297	1.302564
00:00:00.145	1.203663	1.311355	1.316484
00:00:00.146	1.254945	1.306227	1.295971
00:00:00.146	1.342857	1.331868	1.312088
00:00:00.147	1.402930	1.276923	1.297436
00:00:00.147	1.417582	1.263004	1.305495
00:00:00.147	1.382418	1.200000	1.295238
00:00:00.148	1.299634	1.213919	1.288645
00:00:00.148	1.293773	1.278388	1.298168
00:00:00.148	1.245421	1.303297	1.293040
00:00:00.149	1.235897	1.298168	1.297436
00:00:00.149	1.273260	1.311355	1.289377
00:00:00.149	1.319414	1.365568	1.299634
00:00:00.150	1.356044	1.373626	1.306960
00:00:00.150	1.351648	1.348718	1.302564
00:00:00.150	1.332601	1.327473	1.313553
00:00:00.151	1.317216	1.310623	1.306960
00:00:00.151	1.312821	1.326007	1.313553
00:00:00.152	1.268864	1.336996	1.312821
00:00:00.152	1.290110	1.327473	1.308425
00:00:00.152	1.342125	1.335531	1.309158
00:00:00.153	1.334799	1.325275	1.293040
00:00:00.153	1.295971	1.328938	1.310623
00:00:00.153	1.274725	1.295971	1.309158
00:00:00.154	1.211722	1.293040	1.310623
00:00:00.186	1.216117	1.309158	1.294505
00:00:00.186	1.271062	1.303297	1.303297
00:00:00.187	1.335531	1.315751	1.306227
00:00:00.187	1.314286	1.324542	1.287912
00:00:00.187	1.317216	1.336996	1.300366
00:00:00.188	1.326007	1.322344	1.298901
00:00:00.188	1.341392	1.286447	1.300366
00:00:00.188	1.343590	1.301832	1.301832
00:00:00.189	1.332601	1.318681	1.303297
00:00:00.189	1.320879	1.312821	1.307692
00:00:00.189	1.316484	1.309890	1.305495
00:00:00.191	1.306227	1.361172	1.307692
00:00:00.191	1.318681	1.353846	1.304762
00:00:00.191	1.327473	1.273260	1.311355
00:00:00.191	1.334799	1.213187	1.320147
00:00:00.191	1.326740	1.199267	1.315018
00:00:00.192	1.309890	1.289377	1.298168
00:00:00.192	1.331136	1.356777	1.307692
00:00:00.192	1.317949	1.243956	1.293040
00:00:00.193	1.315018	1.212454	1.295238
00:00:00.193	1.301832	1.249084	1.288645
00:00:00.193	1.304029	1.305495	1.292308
00:00:00.194	1.319414	1.347253	1.306227
00:00:00.194	1.313553	1.327473	1.297436
00:00:00.194	1.299634	1.317949	1.289377
00:00:00.195	1.297436	1.334799	1.297436
00:00:00.195	1.301832	1.330403	1.310623
00:00:00.196	1.298168	1.343590	1.306960
00:00:00.196	1.308425	1.360440	1.312821
00:00:00.196	1.311355	1.360440	1.321612
00:00:00.197	1.303297	1.429304	1.315751
00:00:00.197	1.309158	1.445421	1.309890
00:00:00.197	1.309158	1.386081	1.309890
00:00:00.198	1.300366	1.327473	1.302564
00:00:00.198	1.320147	1.275458	1.304762
00:00:00.198	1.329670	1.184615	1.300366
00:00:00.200	1.317216	1.135531	1.298901
00:00:00.200	1.311355	1.109890	1.292308
00:00:00.200	1.332601	1.187546	1.290842
00:00:00.201	1.327473	1.278388	1.298168
00:00:00.201	1.315018	1.311355	1.298901
00:00:00.201	1.306960	1.305495	1.301832
00:00:00.201	1.306227	1.300366	1.315751
00:00:00.201	1.301832	1.321612	1.312821
00:00:00.204	1.296703	1.342125	1.314286
00:00:00.204	1.287179	1.334066	1.305495
00:00:00.204	1.295971	1.331136	1.312821
00:00:00.204	1.280586	1.321612	1.304762
00:00:00.204	1.296703	1.331868	1.306960
00:00:00.204	1.306227	1.334066	1.293040
00:00:00.236	1.297436	1.345788	1.301099
00:00:00.236	1.302564	1.344322	1.293773
00:00:00.236	1.318681	1.336996	1.302564
00:00:00.237	1.288645	1.318681	1.300366
00:00:00.238	1.289377	1.295971	1.280586
00:00:00.238	1.303297	1.276923	1.304762
00:00:00.238	1.334799	1.293773	1.309158
00:00:00.238	1.365568	1.286447	1.307692
00:00:00.238	1.350183	1.298168	1.304762
00:00:00.239	1.332601	1.328938	1.312088
00:00:00.239	1.311355	1.350183	1.309890
00:00:00.240	1.306227	1.362637	1.312821
00:00:00.240	1.306227	1.328205	1.304762
00:00:00.240	1.350183	1.306227	1.318681
00:00:00.241	1.328205	1.315751	1.318681
00:00:00.241	1.311355	1.315751	1.304029
00:00:00.241	1.303297	1.320147	1.315018
00:00:00.242	1.273993	1.290110	1.299634
00:00:00.243	1.284249	1.282051	1.295238
00:00:00.243	1.291575	1.295971	1.300366
00:00:00.243	1.295971	1.322344	1.296703
00:00:00.243	1.303297	1.349451	1.296703
00:00:00.243	1.309890	1.313553	1.285714
00:00:00.244	1.305495	1.291575	1.297436
00:00:00.244	1.313553	1.227839	1.290842
00:00:00.245	1.318681	1.227839	1.300366
00:00:00.245	1.331136	1.243223	1.317216
00:00:00.245	1.286447	1.265201	1.304029
00:00:00.246	1.311355	1.313553	1.316484
00:00:00.246	1.326740	1.326740	1.316484
00:00:00.246	1.328205	1.329670	1.309890
00:00:00.247	1.315018	1.317216	1.293040
00:00:00.247	1.321612	1.310623	1.311355
00:00:00.247	1.321612	1.309158	1.301832
00:00:00.248	1.317216	1.276923	1.302564
00:00:00.248	1.312821	1.262271	1.298168
00:00:00.249	1.255678	1.280586	1.295238
00:00:00.249	1.282051	1.302564	1.294505
00:00:00.249	1.339194	1.322344	1.285714
00:00:00.250	1.390476	1.350183	1.297436
00:00:00.250	1.416117	1.353114	1.304762
00:00:00.250	1.377289	1.345055	1.300366
00:00:00.251	1.320147	1.353114	1.317949
00:00:00.251	1.235165	1.358974	1.306960
00:00:00.251	1.215385	1.364835	1.300366
00:00:00.252	1.239560	1.347253	1.309890
00:00:00.252	1.247619	1.298901	1.300366
00:00:00.252	1.204396	1.257875	1.314286
00:00:00.253	1.200733	1.230769	1.306227
00:00:00.253	1.279121	1.263736	1.306227
00:00:00.285	1.417582	1.298168	1.315751
00:00:00.286	1.436630	1.312821	1.307692
00:00:00.286	1.397070	1.298901	1.309158
00:00:00.286	1.329670	1.298901	1.306227
00:00:00.287	1.291575	1.307692	1.305495
00:00:00.287	1.295238	1.332601	1.308425
00:00:00.287	1.302564	1.316484	1.290110
00:00:00.288	1.304029	1.317949	1.297436
00:00:00.288	1.300366	1.306227	1.298901
00:00:00.289	1.295238	1.305495	1.300366
00:00:00.289	1.306960	1.304762	1.304762
00:00:00.289	1.305495	1.291575	1.300366
00:00:00.290	1.292308	1.273260	1.300366
00:00:00.290	1.309158	1.271062	1.302564
00:00:00.290	1.312821	1.275458	1.309158
00:00:00.291	1.326740	1.301832	1.314286
00:00:00.291	1.312821	1.328205	1.305495
00:00:00.291	1.308425	1.358242	1.302564
00:00:00.293	1.292308	1.358242	1.309158
00:00:00.293	1.296703	1.339194	1.304029
00:00:00.293	1.303297	1.320147	1.309890
00:00:00.293	1.310623	1.268132	1.295238
00:00:00.293	1.340659	1.265201	1.290110
00:00:00.294	1.391941	1.332601	1.301832
00:00:00.294	1.395604	1.456410	1.310623
00:00:00.297	1.347253	1.446154	1.307692
00:00:00.297	1.284982	1.372894	1.315751
00:00:00.297	1.228571	1.229304	1.310623
00:00:00.297	1.262271	1.150916	1.313553
00:00:00.297	1.322344	1.163370	1.318681
00:00:00.297	1.326740	1.194872	1.294505
00:00:00.297	1.342125	1.200733	1.300366
00:00:00.297	1.318681	1.212454	1.291575
00:00:00.297	1.286447	1.263736	1.291575
00:00:00.297	1.273260	1.317949	1.300366
00:00:00.300	1.270330	1.346520	1.297436
00:00:00.300	1.295238	1.350916	1.295971
00:00:00.300	1.305495	1.356777	1.302564
00:00:00.300	1.300366	1.342125	1.288645
00:00:00.300	1.310623	1.337729	1.300366
00:00:00.300	1.316484	1.339194	1.296703
00:00:00.300	1.319414	1.331136	1.292308
00:00:00.300	1.321612	1.331136	1.300366
00:00:00.301	1.319414	1.315751	1.310623
00:00:00.301	1.307692	1.298901	1.304029
00:00:00.301	1.315018	1.305495	1.317949
00:00:00.302	1.306960	1.308425	1.309890
00:00:00.302	1.312821	1.309158	1.312088
00:00:00.303	1.316484	1.323077	1.310623
00:00:00.303	1.301099	1.315018	1.303297
00:00:00.336	1.303297	1.320879	1.302564
00:00:00.336	1.317216	1.333333	1.304762
00:00:00.336	1.301832	1.330403	1.293040
00:00:00.336	1.306227	1.309158	1.298901
00:00:00.336	1.309158	1.299634	1.298901
00:00:00.337	1.305495	1.280586	1.286447
00:00:00.337	1.307692	1.287179	1.295238
00:00:00.338	1.312088	1.315018	1.299634
00:00:00.338	1.297436	1.300366	1.304762
00:00:00.338	1.323077	1.294505	1.311355
00:00:00.339	1.306960	1.295238	1.302564
00:00:00.339	1.295971	1.299634	1.302564
00:00:00.339	1.295971	1.290110	1.312088
00:00:00.340	1.306227	1.268864	1.304029
00:00:00.340	1.323810	1.289377	1.307692
00:00:00.340	1.331868	1.300366	1.312821
00:00:00.341	1.366300	1.309890	1.309890
00:00:00.341	1.364835	1.346520	1.317216
00:00:00.341	1.322344	1.344322	1.306227
00:00:00.342	1.317949	1.342125	1.309890
00:00:00.342	1.342125	1.326740	1.311355
00:00:00.343	1.309158	1.286447	1.292308
00:00:00.343	1.266667	1.279121	1.284982
00:00:00.343	1.256410	1.284249	1.298168
00:00:00.344	1.269597	1.292308	1.289377
00:00:00.344	1.279853	1.340659	1.314286
00:00:00.344	1.308425	1.347253	1.308425
00:00:00.345	1.312088	1.304762	1.299634
00:00:00.345	1.342125	1.307692	1.306227
00:00:00.345	1.310623	1.319414	1.308425
00:00:00.346	1.284982	1.276190	1.301832
00:00:00.346	1.276190	1.270330	1.314286
00:00:00.347	1.252015	1.272527	1.300366
00:00:00.347	1.306960	1.317216	1.296703
00:00:00.347	1.341392	1.364835	1.308425
00:00:00.348	1.319414	1.350916	1.298901
00:00:00.348	1.306227	1.261538	1.300366
00:00:00.348	1.273260	1.203663	1.281319
00:00:00.349	1.291575	1.253480	1.294505
00:00:00.349	1.308425	1.279853	1.298168
00:00:00.349	1.276923	1.268864	1.293773
00:00:00.350	1.306227	1.294505	1.303297
00:00:00.350	1.350916	1.306960	1.305495
00:00:00.350	1.318681	1.342857	1.305495
00:00:00.351	1.331136	1.339194	1.298901
00:00:00.351	1.349451	1.343590	1.309890
00:00:00.352	1.339927	1.321612	1.306960
00:00:00.352	1.347985	1.314286	1.319414
00:00:00.352	1.290842	1.301832	1.315751
00:00:00.353	1.265201	1.303297	1.310623
00:00:00.385	1.262271	1.298901	1.312088
00:00:00.385	1.279853	1.312821	1.298901
00:00:00.385	1.309158	1.327473	1.305495
00:00:00.386	1.327473	1.339927	1.304029
00:00:00.386	1.339927	1.353114	1.307692
00:00:00.387	1.329670	1.362637	1.305495
00:00:00.387	1.323077	1.401465	1.303297
00:00:00.387	1.315751	1.410989	1.297436
00:00:00.389	1.320879	1.336264	1.301832
00:00:00.389	1.312821	1.304029	1.302564
00:00:00.389	1.308425	1.266667	1.318681
00:00:00.389	1.297436	1.208791	1.317216
00:00:00.389	1.291575	1.181685	1.318681
00:00:00.389	1.287179	1.187546	1.316484
00:00:00.392	1.287179	1.231502	1.313553
00:00:00.392	1.320879	1.269597	1.316484
00:00:00.392	1.304762	1.231502	1.300366
00:00:00.392	1.318681	1.224908	1.298901
00:00:00.392	1.337729	1.305495	1.298901
00:00:00.393	1.335531	1.339194	1.305495
00:00:00.393	1.317949	1.351648	1.299634
00:00:00.393	1.320147	1.333333	1.297436
00:00:00.393	1.326007	1.342125	1.301832
00:00:00.393	1.312088	1.330403	1.301832
00:00:00.393	1.311355	1.319414	1.300366
00:00:00.396	1.315751	1.335531	1.297436
00:00:00.396	1.318681	1.342125	1.304029
00:00:00.396	1.319414	1.339194	1.311355
00:00:00.396	1.309158	1.331136	1.312821
00:00:00.396	1.284982	1.327473	1.316484
00:00:00.396	1.298901	1.306960	1.304029
00:00:00.396	1.301832	1.291575	1.311355
00:00:00.396	1.306960	1.300366	1.317216
00:00:00.397	1.315751	1.325275	1.321612
00:00:00.397	1.316484	1.332601	1.309158
00:00:00.397	1.329670	1.334066	1.300366
00:00:00.398	1.321612	1.323077	1.293773
00:00:00.398	1.312821	1.323077	1.293773
00:00:00.398	1.292308	1.338462	1.293040
00:00:00.400	1.301832	1.349451	1.295238
00:00:00.400	1.312088	1.329670	1.309158
00:00:00.400	1.305495	1.299634	1.307692
00:00:00.400	1.313553	1.367033	1.299634
00:00:00.400	1.319414	1.356777	1.316484
00:00:00.401	1.309890	1.279853	1.317216
00:00:00.401	1.306960	1.168498	1.311355
00:00:00.401	1.296703	1.143590	1.304029
00:00:00.402	1.300366	1.204396	1.304029
00:00:00.402	1.295238	1.253480	1.311355
00:00:00.402	1.297436	1.245421	1.315018
00:00:00.434	1.323810	1.271795	1.305495
00:00:00.435	1.331868	1.353846	1.285714
00:00:00.435	1.353114	1.378755	1.305495
00:00:00.436	1.363370	1.391209	1.305495
00:00:00.436	1.323077	1.367033	1.280586
00:00:00.436	1.319414	1.322344	1.298168
00:00:00.437	1.316484	1.317949	1.299634
00:00:00.437	1.323810	1.315018	1.297436
00:00:00.437	1.306227	1.296703	1.297436
00:00:00.438	1.286447	1.304762	1.307692
00:00:00.438	1.283516	1.319414	1.317216
00:00:00.438	1.290110	1.333333	1.304762
00:00:00.439	1.262271	1.347985	1.316484
00:00:00.439	1.232234	1.339194	1.307692
00:00:00.439	1.290110	1.321612	1.309890
00:00:00.440	1.326740	1.287912	1.317216
00:00:00.440	1.353114	1.253480	1.300366
00:00:00.441	1.411722	1.281319	1.308425
00:00:00.441	1.411722	1.356044	1.294505
00:00:00.441	1.356044	1.410989	1.301832
00:00:00.442	1.285714	1.350183	1.298168
00:00:00.442	1.217582	1.290842	1.299634
00:00:00.442	1.230037	1.243956	1.290110
00:00:00.443	1.227106	1.254212	1.305495
00:00:00.443	1.273260	1.246886	1.298901
00:00:00.443	1.302564	1.200733	1.287179
00:00:00.444	1.311355	1.220513	1.295971
00:00:00.444	1.325275	1.257143	1.305495
00:00:00.445	1.327473	1.286447	1.306960
00:00:00.445	1.315751	1.291575	1.300366
00:00:00.445	1.326740	1.306960	1.315018
00:00:00.446	1.320147	1.322344	1.312821
00:00:00.446	1.318681	1.354579	1.312821
00:00:00.446	1.315751	1.423443	1.313553
00:00:00.447	1.313553	1.402198	1.312821
00:00:00.447	1.309890	1.336264	1.313553
00:00:00.447	1.304762	1.277656	1.309890
00:00:00.448	1.307692	1.251282	1.303297
00:00:00.448	1.309158	1.279121	1.300366
00:00:00.448	1.320879	1.302564	1.298168
00:00:00.449	1.319414	1.282784	1.287179
00:00:00.449	1.324542	1.305495	1.290842
00:00:00.450	1.306960	1.306227	1.285714
00:00:00.450	1.313553	1.314286	1.306960
00:00:00.450	1.305495	1.305495	1.309890
00:00:00.451	1.292308	1.304029	1.303297
00:00:00.452	1.312821	1.303297	1.315751
00:00:00.453	1.302564	1.302564	1.320147
00:00:00.453	1.296703	1.293773	1.300366
00:00:00.453	1.327473	1.298901	1.312821
00:00:00.484	1.312088	1.285714	1.294505
00:00:00.485	1.296703	1.293773	1.295238
00:00:00.485	1.303297	1.290842	1.291575
00:00:00.485	1.271062	1.293040	1.293773
00:00:00.487	1.297436	1.334066	1.304762
00:00:00.487	1.304029	1.322344	1.295238
00:00:00.487	1.323810	1.315751	1.285714
00:00:00.489	1.323810	1.323810	1.286447
00:00:00.489	1.323810	1.327473	1.279853
00:00:00.489	1.400000	1.324542	1.323077
00:00:00.489	1.371429	1.318681	1.314286
00:00:00.489	1.263736	1.298168	1.302564
00:00:00.489	1.309890	1.298901	1.321612
00:00:00.489	1.334799	1.299634	1.316484
00:00:00.489	1.256410	1.293773	1.309158
00:00:00.492	1.280586	1.318681	1.318681
00:00:00.492	1.313553	1.338462	1.302564
00:00:00.492	1.294505	1.357509	1.306960
00:00:00.492	1.285714	1.353846	1.312821
00:00:00.492	1.284249	1.319414	1.293040
00:00:00.492	1.261538	1.273993	1.300366
00:00:00.492	1.302564	1.317949	1.298168
00:00:00.492	1.336264	1.304029	1.291575
00:00:00.492	1.353114	1.293040	1.304762
00:00:00.493	1.372894	1.267399	1.295971
00:00:00.493	1.337729	1.257143	1.304029
00:00:00.493	1.325275	1.268132	1.305495
00:00:00.494	1.309890	1.265201	1.289377
00:00:00.494	1.290842	1.212454	1.292308
00:00:00.495	1.252015	1.208791	1.309158
00:00:00.495	1.287179	1.248352	1.311355
00:00:00.495	1.286447	1.286447	1.323077
00:00:00.496	1.249817	1.319414	1.323810
00:00:00.496	1.273260	1.336264	1.307692
00:00:00.496	1.326740	1.328938	1.314286
00:00:00.497	1.417582	1.349451	1.323077
00:00:00.497	1.362637	1.339927	1.305495
00:00:00.497	1.356777	1.341392	1.296703
00:00:00.498	1.307692	1.337729	1.306960
00:00:00.498	1.273993	1.324542	1.300366
00:00:00.499	1.262271	1.328938	1.293773
00:00:00.499	1.265201	1.321612	1.263736
00:00:00.499	1.252747	1.307692	1.258608
00:00:00.500	1.252015	1.293773	1.265934
00:00:00.500	1.241758	1.310623	1.298168
00:00:00.500	1.380952	1.317216	1.312088
00:00:00.501	1.527473	1.333333	1.329670
00:00:00.501	1.432967	1.306227	1.328205
00:00:00.501	1.343590	1.294505	1.317216
00:00:00.502	1.267399	1.308425	1.326007
00:00:00.534	1.328938	1.312821	1.313553
00:00:00.534	1.309890	1.317216	1.323810
00:00:00.535	1.277656	1.314286	1.302564
00:00:00.536	1.268864	1.303297	1.282784
00:00:00.536	1.279121	1.316484	1.298901
00:00:00.536	1.284249	1.313553	1.302564
00:00:00.536	1.286447	1.306227	1.287912
00:00:00.536	1.267399	1.324542	1.287179
00:00:00.537	1.229304	1.315018	1.302564
00:00:00.537	1.233700	1.307692	1.314286
00:00:00.537	1.293040	1.301099	1.300366
00:00:00.538	1.366300	1.304762	1.315751
00:00:00.538	1.294505	1.309158	1.345788
00:00:00.539	1.251282	1.301099	1.308425
00:00:00.539	1.405861	1.288645	1.271062
00:00:00.539	1.526007	1.313553	1.314286
00:00:00.540	1.428571	1.283516	1.327473
00:00:00.540	1.311355	1.282784	1.397070
00:00:00.540	1.254945	1.279853	1.355311
00:00:00.541	1.231502	1.273260	1.227839
00:00:00.541	1.216117	1.273993	1.190476
00:00:00.541	1.352381	1.294505	1.265934
00:00:00.542	1.470330	1.298901	1.317216
00:00:00.542	1.258608	1.304029	1.323810
00:00:00.543	1.238828	1.304762	1.320879
00:00:00.543	1.249084	1.304029	1.331868
00:00:00.543	1.285714	1.321612	1.359707
00:00:00.544	1.306227	1.333333	1.378755
00:00:00.544	1.345788	1.336996	1.342857
00:00:00.544	1.300366	1.333333	1.330403
00:00:00.545	1.264469	1.333333	1.333333
00:00:00.545	1.363370	1.339927	1.317949
00:00:00.545	1.459341	1.326740	1.276923
00:00:00.546	1.439560	1.309158	1.201465
00:00:00.546	1.504029	1.305495	1.195604
00:00:00.546	1.293040	1.289377	1.197070
00:00:00.547	1.077656	1.305495	1.250549
00:00:00.547	1.126007	1.320879	1.300366
00:00:00.548	1.226374	1.334066	1.315751
00:00:00.548	1.275458	1.344322	1.307692
00:00:00.548	1.309890	1.347253	1.316484
00:00:00.549	1.310623	1.339927	1.306960
00:00:00.549	1.347985	1.308425	1.313553
00:00:00.549	1.399267	1.276190	1.314286
00:00:00.550	1.336996	1.267399	1.320879
00:00:00.550	1.310623	1.256410	1.317949
00:00:00.550	1.295971	1.258608	1.309158
00:00:00.554	1.306227	1.305495	1.322344
00:00:00.554	1.307692	1.299634	1.329670
00:00:00.554	1.303297	1.301832	1.323810
00:00:00.585	1.299634	1.327473	1.312821
00:00:00.585	1.311355	1.286447	1.309158
00:00:00.585	1.315751	1.241026	1.313553
00:00:00.586	1.298901	1.206593	1.294505
00:00:00.586	1.262271	1.215385	1.307692
00:00:00.586	1.261538	1.276923	1.287179
00:00:00.586	1.254945	1.328938	1.285714
00:00:00.586	1.273993	1.395604	1.303297
00:00:00.589	1.288645	1.420513	1.295238
00:00:00.589	1.291575	1.399267	1.290110
00:00:00.589	1.468132	1.423443	1.312088
00:00:00.589	1.454945	1.408059	1.314286
00:00:00.589	1.402198	1.382418	1.332601
00:00:00.589	1.387546	1.317949	1.326007
00:00:00.589	1.321612	1.256410	1.300366
00:00:00.589	1.276190	1.256410	1.320879
00:00:00.589	1.273993	1.248352	1.315018
00:00:00.590	1.290110	1.257143	1.309158
00:00:00.590	1.291575	1.269597	1.306960
00:00:00.590	1.287179	1.274725	1.309158
00:00:00.591	1.293040	1.271795	1.290842
00:00:00.591	1.315018	1.254212	1.280586
00:00:00.592	1.311355	1.255678	1.282784
00:00:00.592	1.248352	1.241758	1.282784
00:00:00.592	1.241026	1.233700	1.290842
00:00:00.593	1.307692	1.238828	1.292308
00:00:00.593	1.304029	1.293773	1.294505
00:00:00.593	1.317949	1.361172	1.305495
00:00:00.594	1.315018	1.353114	1.306960
00:00:00.594	1.323810	1.353114	1.318681
00:00:00.594	1.328938	1.332601	1.325275
00:00:00.595	1.301832	1.347253	1.319414
00:00:00.595	1.312088	1.348718	1.323077
00:00:00.595	1.304762	1.301099	1.305495
00:00:00.596	1.309158	1.295971	1.316484
00:00:00.596	1.308425	1.328205	1.305495
00:00:00.597	1.309890	1.342125	1.300366
00:00:00.597	1.309890	1.363370	1.289377
00:00:00.597	1.302564	1.388278	1.295238
00:00:00.598	1.307692	1.343590	1.288645
00:00:00.598	1.312088	1.315018	1.301832
00:00:00.598	1.310623	1.281319	1.299634
00:00:00.599	1.296703	1.246886	1.290842
00:00:00.599	1.309158	1.247619	1.297436
00:00:00.599	1.307692	1.258608	1.290110
00:00:00.600	1.317216	1.287912	1.306960
00:00:00.600	1.319414	1.290110	1.304762
00:00:00.600	1.309158	1.288645	1.313553
00:00:00.601	1.301832	1.282051	1.306960
00:00:00.601	1.300366	1.292308	1.311355
00:00:00.633	1.315018	1.311355	1.325275
00:00:00.634	1.306960	1.321612	1.305495
00:00:00.634	1.304029	1.317216	1.312821
00:00:00.634	1.309890	1.309890	1.295971
00:00:00.635	1.309158	1.312088	1.294505
00:00:00.635	1.323077	1.337729	1.295238
00:00:00.636	1.312088	1.332601	1.285714
00:00:00.636	1.309890	1.339927	1.287179
00:00:00.636	1.315751	1.323810	1.291575
00:00:00.637	1.314286	1.312821	1.306227
00:00:00.637	1.307692	1.291575	1.305495
00:00:00.637	1.312088	1.289377	1.313553
00:00:00.638	1.304762	1.282051	1.316484
00:00:00.638	1.304762	1.291575	1.311355
00:00:00.638	1.311355	1.273993	1.315018
00:00:00.639	1.309158	1.252747	1.316484
00:00:00.640	1.309158	1.251282	1.308425
00:00:00.640	1.309158	1.241758	1.303297
00:00:00.640	1.309890	1.276190	1.303297
00:00:00.640	1.308425	1.315751	1.303297
00:00:00.641	1.306227	1.338462	1.296703
00:00:00.641	1.314286	1.314286	1.298168
00:00:00.641	1.315751	1.309158	1.300366
00:00:00.642	1.313553	1.288645	1.304762
00:00:00.642	1.315018	1.271062	1.295971
00:00:00.642	1.306960	1.268864	1.302564
00:00:00.643	1.311355	1.282784	1.300366
00:00:00.643	1.300366	1.319414	1.295971
00:00:00.644	1.312088	1.362637	1.312821
00:00:00.644	1.304029	1.347253	1.306960
00:00:00.644	1.303297	1.333333	1.309158
00:00:00.644	1.309890	1.309158	1.309158
00:00:00.645	1.307692	1.299634	1.309890
00:00:00.645	1.306227	1.298168	1.308425
00:00:00.646	1.304029	1.276190	1.306960
00:00:00.646	1.309158	1.293040	1.305495
00:00:00.646	1.307692	1.312821	1.297436
00:00:00.647	1.306960	1.339927	1.304029
00:00:00.648	1.319414	1.330403	1.303297
00:00:00.648	1.302564	1.306227	1.276923
00:00:00.648	1.312088	1.320879	1.295971
00:00:00.648	1.314286	1.327473	1.298168
00:00:00.648	1.303297	1.315751	1.293040
00:00:00.651	1.318681	1.304762	1.306960
00:00:00.651	1.310623	1.298901	1.298901
00:00:00.651	1.314286	1.316484	1.311355
00:00:00.651	1.315018	1.304762	1.313553
00:00:00.651	1.304029	1.292308	1.304762
00:00:00.651	1.316484	1.326007	1.316484
00:00:00.651	1.305495	1.371429	1.317216
00:00:00.686	1.305495	1.361905	1.309158
00:00:00.686	1.309890	1.328205	1.310623
00:00:00.686	1.305495	1.276190	1.298168
00:00:00.686	1.305495	1.260806	1.293040
00:00:00.686	1.309890	1.282051	1.293040
00:00:00.686	1.316484	1.284249	1.304029
00:00:00.686	1.309158	1.268132	1.300366
00:00:00.686	1.309158	1.251282	1.293040
00:00:00.686	1.312088	1.271062	1.297436
00:00:00.686	1.304762	1.296703	1.290842
00:00:00.688	1.306960	1.326007	1.297436
00:00:00.688	1.307692	1.317949	1.311355
00:00:00.688	1.309890	1.271795	1.308425
00:00:00.688	1.300366	1.260073	1.308425
00:00:00.688	1.296703	1.279121	1.301832
00:00:00.688	1.295971	1.263004	1.312821
00:00:00.689	1.302564	1.271062	1.298901
00:00:00.689	1.309890	1.312821	1.312088
00:00:00.690	1.306227	1.327473	1.314286
00:00:00.690	1.298168	1.330403	1.300366
00:00:00.690	1.312088	1.351648	1.304029
00:00:00.691	1.301832	1.340659	1.288645
00:00:00.691	1.310623	1.344322	1.294505
00:00:00.692	1.308425	1.330403	1.291575
00:00:00.692	1.314286	1.326007	1.300366
00:00:00.692	1.315751	1.327473	1.298901
00:00:00.692	1.306227	1.317949	1.298901
00:00:00.693	1.306960	1.318681	1.295971
00:00:00.693	1.312088	1.353114	1.300366
00:00:00.693	1.312088	1.344322	1.311355
00:00:00.694	1.314286	1.352381	1.315751
00:00:00.694	1.309890	1.320147	1.318681
00:00:00.695	1.317949	1.283516	1.317949
00:00:00.695	1.304029	1.249817	1.313553
00:00:00.695	1.298168	1.237363	1.314286
00:00:00.696	1.321612	1.260073	1.318681
00:00:00.696	1.309158	1.267399	1.295238
00:00:00.696	1.316484	1.260806	1.305495
00:00:00.697	1.308425	1.265201	1.288645
00:00:00.697	1.303297	1.295971	1.287912
00:00:00.697	1.312088	1.326007	1.294505
00:00:00.698	1.309158	1.311355	1.288645
00:00:00.698	1.311355	1.296703	1.292308
00:00:00.699	1.312821	1.310623	1.294505
00:00:00.699	1.303297	1.316484	1.286447
00:00:00.699	1.306227	1.320147	1.308425
00:00:00.700	1.304762	1.317949	1.303297
00:00:00.700	1.300366	1.300366	1.315751
00:00:00.700	1.292308	1.281319	1.309890
00:00:00.701	1.306227	1.273260	1.303297
00:00:00.733	1.310623	1.285714	1.304762
00:00:00.733	1.303297	1.295971	1.306227
00:00:00.734	1.307692	1.313553	1.310623
00:00:00.734	1.306960	1.326740	1.316484
00:00:00.734	1.306960	1.328938	1.305495
00:00:00.735	1.312088	1.323810	1.306960
00:00:00.735	1.320147	1.336996	1.304762
00:00:00.735	1.309890	1.348718	1.295971
00:00:00.736	1.308425	1.343590	1.298901
00:00:00.736	1.319414	1.326740	1.300366
00:00:00.736	1.317949	1.301099	1.302564
00:00:00.737	1.318681	1.287179	1.306227
00:00:00.737	1.312088	1.293040	1.296703
00:00:00.737	1.300366	1.299634	1.302564
00:00:00.738	1.315751	1.300366	1.317216
00:00:00.738	1.313553	1.279121	1.312088
00:00:00.739	1.307692	1.287912	1.316484
00:00:00.739	1.305495	1.304762	1.312821
00:00:00.739	1.310623	1.312088	1.300366
00:00:00.740	1.315018	1.320147	1.312088
00:00:00.740	1.295971	1.312088	1.297436
00:00:00.740	1.298901	1.293040	1.293040
00:00:00.741	1.304029	1.314286	1.294505
00:00:00.741	1.312088	1.317949	1.293773
00:00:00.741	1.313553	1.318681	1.300366
00:00:00.742	1.315018	1.317216	1.294505
00:00:00.742	1.312821	1.320879	1.302564
00:00:00.743	1.319414	1.318681	1.306227
00:00:00.744	1.312088	1.306227	1.304762
00:00:00.744	1.300366	1.280586	1.312821
00:00:00.745	1.307692	1.282784	1.311355
00:00:00.745	1.304029	1.305495	1.300366
00:00:00.745	1.305495	1.307692	1.314286
00:00:00.746	1.300366	1.310623	1.308425
00:00:00.746	1.298901	1.320879	1.304762
00:00:00.746	1.306227	1.306960	1.300366
00:00:00.746	1.310623	1.295971	1.300366
00:00:00.746	1.310623	1.287179	1.299634
00:00:00.746	1.316484	1.281319	1.295238
00:00:00.749	1.304029	1.304762	1.289377
00:00:00.749	1.312821	1.342857	1.298168
00:00:00.749	1.306960	1.333333	1.299634
00:00:00.749	1.306227	1.331868	1.297436
00:00:00.749	1.304762	1.324542	1.304762
00:00:00.749	1.309158	1.279121	1.298168
00:00:00.749	1.316484	1.282784	1.316484
00:00:00.749	1.312088	1.287179	1.315751
00:00:00.750	1.311355	1.295971	1.316484
00:00:00.750	1.301099	1.301832	1.313553
00:00:00.750	1.306960	1.318681	1.315751
00:00:00.783	1.304762	1.326740	1.318681
00:00:00.783	1.293040	1.334799	1.307692
00:00:00.783	1.306227	1.359707	1.307692
00:00:00.785	1.312821	1.353846	1.304762
00:00:00.785	1.309158	1.306960	1.295971
00:00:00.785	1.312088	1.282784	1.296703
00:00:00.786	1.317216	1.298901	1.293773
00:00:00.786	1.317949	1.318681	1.299634
00:00:00.786	1.320147	1.321612	1.290110
00:00:00.786	1.311355	1.304029	1.279121
00:00:00.786	1.295238	1.260806	1.284249
00:00:00.787	1.304762	1.247619	1.296703
00:00:00.787	1.298901	1.249084	1.300366
00:00:00.787	1.313553	1.267399	1.312088
00:00:00.788	1.307692	1.280586	1.309890
00:00:00.788	1.305495	1.281319	1.300366
00:00:00.788	1.310623	1.331136	1.307692
00:00:00.789	1.312088	1.339194	1.309890
00:00:00.789	1.310623	1.323810	1.315018
00:00:00.789	1.312088	1.295238	1.314286
00:00:00.790	1.312821	1.287912	1.315018
00:00:00.790	1.306960	1.304762	1.304762
00:00:00.790	1.318681	1.326007	1.298901
00:00:00.791	1.314286	1.326740	1.294505
00:00:00.791	1.319414	1.337729	1.298901
00:00:00.792	1.310623	1.318681	1.294505
00:00:00.792	1.306960	1.298168	1.290842
00:00:00.792	1.317216	1.301832	1.309890
00:00:00.793	1.317949	1.287179	1.311355
00:00:00.793	1.305495	1.298168	1.312821
00:00:00.793	1.303297	1.311355	1.311355
00:00:00.794	1.289377	1.326740	1.312821
00:00:00.794	1.304029	1.326007	1.312088
00:00:00.794	1.306960	1.325275	1.304762
00:00:00.795	1.310623	1.312821	1.299634
00:00:00.795	1.313553	1.280586	1.297436
00:00:00.795	1.310623	1.276190	1.298901
00:00:00.797	1.320147	1.268132	1.312821
00:00:00.797	1.314286	1.294505	1.297436
00:00:00.797	1.305495	1.372161	1.287912
00:00:00.797	1.317949	1.344322	1.297436
00:00:00.797	1.314286	1.312088	1.288645
00:00:00.798	1.318681	1.271062	1.306960
00:00:00.798	1.316484	1.254945	1.305495
00:00:00.798	1.313553	1.296703	1.310623
00:00:00.799	1.303297	1.265934	1.297436
00:00:00.799	1.303297	1.284982	1.295238
00:00:00.799	1.301832	1.355311	1.298901
00:00:00.800	1.301099	1.353114	1.300366
00:00:00.800	1.300366	1.315751	1.297436
00:00:00.832	1.306227	1.255678	1.298901
00:00:00.833	1.311355	1.248352	1.313553
00:00:00.833	1.313553	1.270330	1.311355
00:00:00.833	1.312088	1.259341	1.304762
00:00:00.834	1.310623	1.238828	1.308425
00:00:00.834	1.312821	1.277656	1.298901
00:00:00.835	1.300366	1.328938	1.299634
00:00:00.835	1.315751	1.347253	1.296703
00:00:00.835	1.306227	1.350916	1.284982
00:00:00.836	1.317949	1.364835	1.292308
00:00:00.836	1.314286	1.359707	1.306227
00:00:00.836	1.304762	1.331868	1.304029
00:00:00.837	1.314286	1.336996	1.316484
00:00:00.837	1.304029	1.299634	1.312821
00:00:00.837	1.314286	1.284249	1.317949
00:00:00.839	1.312821	1.294505	1.320147
00:00:00.839	1.309890	1.307692	1.309158
00:00:00.839	1.308425	1.317216	1.312088
00:00:00.842	1.309158	1.312088	1.311355
00:00:00.842	1.303297	1.300366	1.306227
00:00:00.842	1.314286	1.299634	1.308425
00:00:00.842	1.312088	1.300366	1.300366
00:00:00.842	1.311355	1.322344	1.298168
00:00:00.842	1.313553	1.387546	1.297436
00:00:00.842	1.306960	1.376557	1.295971
00:00:00.842	1.312088	1.372161	1.303297
00:00:00.842	1.312821	1.321612	1.294505
00:00:00.842	1.303297	1.260806	1.293773
00:00:00.842	1.315751	1.279853	1.300366
00:00:00.845	1.311355	1.271795	1.303297
00:00:00.845	1.312821	1.246154	1.311355
00:00:00.845	1.309158	1.227106	1.309158
00:00:00.845	1.301099	1.242491	1.307692
00:00:00.845	1.309158	1.279121	1.318681
00:00:00.845	1.310623	1.290110	1.322344
00:00:00.845	1.306227	1.290842	1.316484
00:00:00.845	1.312088	1.311355	1.317949
00:00:00.846	1.304762	1.336996	1.297436
00:00:00.847	1.313553	1.358974	1.312088
00:00:00.847	1.314286	1.370696	1.299634
00:00:00.847	1.318681	1.380220	1.300366
00:00:00.847	1.319414	1.354579	1.306960
00:00:00.847	1.314286	1.304762	1.299634
00:00:00.848	1.308425	1.276923	1.294505
00:00:00.849	1.320879	1.252747	1.303297
00:00:00.849	1.309158	1.252747	1.287912
00:00:00.849	1.311355	1.273993	1.303297
00:00:00.849	1.304029	1.237363	1.302564
00:00:00.849	1.293040	1.257143	1.306960
00:00:00.850	1.310623	1.299634	1.312088
00:00:00.882	1.306227	1.284249	1.307692
00:00:00.882	1.302564	1.276190	1.305495
00:00:00.883	1.312088	1.317949	1.309158
00:00:00.883	1.309890	1.341392	1.306227
00:00:00.883	1.316484	1.356777	1.309890
00:00:00.884	1.308425	1.325275	1.282051
00:00:00.884	1.314286	1.329670	1.290110
00:00:00.885	1.322344	1.353846	1.300366
00:00:00.885	1.315018	1.319414	1.288645
00:00:00.885	1.300366	1.284982	1.289377
00:00:00.886	1.315018	1.317949	1.296703
00:00:00.886	1.310623	1.308425	1.300366
00:00:00.886	1.308425	1.291575	1.304762
00:00:00.887	1.314286	1.300366	1.320879
00:00:00.887	1.312821	1.295238	1.310623
00:00:00.887	1.316484	1.315018	1.320879
00:00:00.888	1.306227	1.306960	1.312088
00:00:00.888	1.304029	1.279853	1.312821
00:00:00.888	1.306960	1.304762	1.319414
00:00:00.889	1.305495	1.265201	1.306227
00:00:00.889	1.312088	1.232967	1.302564
00:00:00.890	1.312088	1.249084	1.300366
00:00:00.890	1.299634	1.280586	1.302564
00:00:00.890	1.317949	1.345788	1.303297
00:00:00.891	1.311355	1.347253	1.291575
00:00:00.891	1.317949	1.334066	1.298901
00:00:00.891	1.313553	1.331136	1.292308
00:00:00.892	1.311355	1.345055	1.305495
00:00:00.892	1.320147	1.369231	1.306227
00:00:00.892	1.315018	1.331136	1.295971
00:00:00.893	1.315018	1.290842	1.316484
00:00:00.893	1.313553	1.273260	1.305495
00:00:00.893	1.304762	1.295238	1.309890
00:00:00.894	1.309158	1.439560	1.318681
00:00:00.894	1.304029	1.448352	1.308425
00:00:00.895	1.303297	1.386081	1.312821
00:00:00.895	1.309890	1.344322	1.316484
00:00:00.895	1.301099	1.261538	1.304762
00:00:00.896	1.310623	1.212454	1.311355
00:00:00.896	1.312821	1.246154	1.306960
00:00:00.896	1.296703	1.232234	1.288645
00:00:00.897	1.306960	1.232234	1.280586
00:00:00.897	1.311355	1.246154	1.282784
00:00:00.897	1.323810	1.248352	1.304029
00:00:00.898	1.328938	1.294505	1.309158
00:00:00.898	1.316484	1.256410	1.295238
00:00:00.898	1.306960	1.152381	1.292308
00:00:00.899	1.296703	1.204396	1.291575
00:00:00.899	1.285714	1.343590	1.306960
00:00:00.900	1.293040	1.372894	1.304762
00:00:00.932	1.300366	1.350916	1.317216
00:00:00.933	1.304029	1.298168	1.323810
00:00:00.933	1.316484	1.301832	1.315018
00:00:00.933	1.314286	1.321612	1.314286
00:00:00.933	1.311355	1.350183	1.308425
00:00:00.934	1.315018	1.372894	1.294505
00:00:00.938	1.317949	1.391941	1.296703
00:00:00.938	1.315018	1.347985	1.294505
00:00:00.938	1.312088	1.265201	1.299634
00:00:00.938	1.317216	1.249817	1.308425
00:00:00.938	1.312088	1.317949	1.299634
00:00:00.938	1.316484	1.384615	1.299634
00:00:00.938	1.306960	1.366300	1.299634
00:00:00.938	1.315018	1.315018	1.299634
00:00:00.938	1.309158	1.313553	1.317216
00:00:00.938	1.306227	1.293773	1.317216
00:00:00.938	1.302564	1.252747	1.323077
00:00:00.938	1.310623	1.237363	1.317216
00:00:00.938	1.312088	1.295238	1.309158
00:00:00.941	1.305495	1.322344	1.312088
00:00:00.941	1.312088	1.320879	1.305495
00:00:00.941	1.308425	1.307692	1.303297
00:00:00.941	1.312821	1.320879	1.298901
00:00:00.941	1.309890	1.320879	1.286447
00:00:00.941	1.310623	1.316484	1.282784
00:00:00.941	1.301099	1.289377	1.276923
00:00:00.941	1.308425	1.298901	1.284249
00:00:00.941	1.305495	1.320879	1.298901
00:00:00.942	1.315018	1.334066	1.306227
00:00:00.942	1.307692	1.323077	1.308425
00:00:00.942	1.300366	1.304029	1.304029
00:00:00.943	1.312088	1.320879	1.312821
00:00:00.943	1.310623	1.324542	1.317949
00:00:00.944	1.301832	1.306227	1.314286
00:00:00.944	1.313553	1.298901	1.313553
00:00:00.944	1.310623	1.279853	1.308425
00:00:00.945	1.308425	1.291575	1.310623
00:00:00.945	1.308425	1.298168	1.308425
00:00:00.945	1.318681	1.317216	1.303297
00:00:00.946	1.305495	1.317949	1.297436
00:00:00.946	1.317216	1.307692	1.298168
00:00:00.946	1.316484	1.304762	1.295238
00:00:00.947	1.315018	1.327473	1.302564
00:00:00.947	1.311355	1.331868	1.292308
00:00:00.947	1.309158	1.300366	1.293040
00:00:00.948	1.312088	1.292308	1.305495
00:00:00.948	1.308425	1.309158	1.306227
00:00:00.949	1.310623	1.313553	1.309158
00:00:00.949	1.312088	1.303297	1.316484
00:00:00.949	1.296703	1.274725	1.308425
00:00:00.981	1.298168	1.260073	1.309890
00:00:00.982	1.310623	1.266667	1.312088
00:00:00.982	1.296703	1.271795	1.300366
00:00:00.983	1.304762	1.300366	1.312821
00:00:00.983	1.306227	1.333333	1.304029
00:00:00.983	1.310623	1.375092	1.300366
00:00:00.984	1.310623	1.360440	1.295971
00:00:00.984	1.313553	1.334799	1.299634
00:00:00.985	1.319414	1.306227	1.294505
00:00:00.985	1.320147	1.299634	1.301832
00:00:00.985	1.317216	1.279121	1.294505
00:00:00.985	1.308425	1.294505	1.298168
00:00:00.986	1.302564	1.306960	1.294505
00:00:00.986	1.303297	1.349451	1.306227
00:00:00.986	1.312088	1.404396	1.312088
00:00:00.987	1.307692	1.384615	1.307692
00:00:00.987	1.296703	1.320879	1.300366
00:00:00.988	1.303297	1.290842	1.312821
00:00:00.988	1.304762	1.241026	1.317949
00:00:00.988	1.306227	1.177289	1.303297
00:00:00.989	1.317216	1.144322	1.313553
00:00:00.989	1.306227	1.191941	1.304762
00:00:00.989	1.315018	1.245421	1.303297
00:00:00.990	1.309158	1.290110	1.290110
00:00:00.990	1.317949	1.345788	1.298168
00:00:00.990	1.312088	1.396337	1.289377
00:00:00.991	1.309890	1.410989	1.293040
00:00:00.991	1.306960	1.334066	1.290110
00:00:00.991	1.312088	1.292308	1.291575
00:00:00.992	1.310623	1.298901	1.303297
00:00:00.992	1.316484	1.326007	1.312088
00:00:00.993	1.312088	1.299634	1.312088
00:00:00.993	1.312088	1.244689	1.315018
00:00:00.993	1.304762	1.272527	1.314286
00:00:00.994	1.305495	1.284982	1.317216
00:00:00.994	1.309158	1.357509	1.315018
