timestamp	ch1	ch2	ch3
00:00:00.000	1.307692	1.286447	1.323077
00:00:00.000	1.309158	1.285714	1.313553
00:00:00.001	1.311355	1.294505	1.313553
00:00:00.001	1.303297	1.288645	1.302564
00:00:00.001	1.310623	1.300366	1.309158
00:00:00.002	1.312088	1.313553	1.300366
00:00:00.002	1.296703	1.315751	1.305495
00:00:00.002	1.311355	1.323810	1.306227
00:00:00.003	1.310623	1.324542	1.293040
00:00:00.003	1.301099	1.315018	1.292308
00:00:00.003	1.312088	1.320147	1.291575
00:00:00.004	1.309158	1.312088	1.290842
00:00:00.004	1.302564	1.301832	1.290110
00:00:00.005	1.309158	1.293773	1.307692
00:00:00.005	1.311355	1.279853	1.304029
00:00:00.005	1.313553	1.269597	1.315751
00:00:00.006	1.313553	1.279853	1.314286
00:00:00.006	1.304029	1.293040	1.317949
00:00:00.006	1.316484	1.309890	1.321612
00:00:00.007	1.311355	1.326740	1.317216
00:00:00.007	1.300366	1.318681	1.315751
00:00:00.007	1.313553	1.328205	1.309890
00:00:00.008	1.308425	1.335531	1.300366
00:00:00.040	1.307692	1.309890	1.293773
00:00:00.040	1.315018	1.295971	1.298901
00:00:00.041	1.320147	1.287179	1.300366
00:00:00.041	1.313553	1.261538	1.295238
00:00:00.041	1.318681	1.304762	1.299634
00:00:00.042	1.312088	1.310623	1.293773
00:00:00.042	1.304762	1.296703	1.299634
00:00:00.042	1.306227	1.284982	1.299634
00:00:00.043	1.311355	1.286447	1.306960
00:00:00.043	1.320879	1.300366	1.308425
00:00:00.044	1.307692	1.309890	1.295238
00:00:00.044	1.303297	1.323810	1.310623
00:00:00.044	1.305495	1.332601	1.312088
00:00:00.045	1.293040	1.326007	1.312088
00:00:00.045	1.312088	1.326007	1.312088
00:00:00.045	1.311355	1.306227	1.309890
00:00:00.047	1.315018	1.309890	1.315018
00:00:00.047	1.313553	1.309158	1.296703
00:00:00.047	1.303297	1.297436	1.289377
00:00:00.048	1.312088	1.308425	1.297436
00:00:00.048	1.315751	1.310623	1.293773
00:00:00.048	1.302564	1.307692	1.293040
00:00:00.049	1.304762	1.305495	1.296703
00:00:00.049	1.312088	1.309158	1.295971
00:00:00.049	1.306227	1.304762	1.298168
00:00:00.049	1.321612	1.312821	1.309890
00:00:00.049	1.317216	1.309890	1.312821
00:00:00.052	1.312821	1.301099	1.313553
00:00:00.052	1.308425	1.294505	1.304762
00:00:00.052	1.308425	1.304029	1.320879
00:00:00.052	1.304029	1.293773	1.310623
00:00:00.052	1.303297	1.307692	1.316484
00:00:00.052	1.295971	1.293773	1.304762
00:00:00.052	1.306227	1.287912	1.295238
00:00:00.052	1.309890	1.294505	1.300366
00:00:00.052	1.316484	1.313553	1.298901
00:00:00.053	1.309890	1.318681	1.288645
00:00:00.053	1.300366	1.311355	1.282051
00:00:00.054	1.306227	1.311355	1.290842
00:00:00.054	1.323810	1.312088	1.299634
00:00:00.054	1.316484	1.308425	1.299634
00:00:00.055	1.315018	1.329670	1.302564
00:00:00.055	1.305495	1.323810	1.309890
00:00:00.055	1.309158	1.302564	1.312821
00:00:00.056	1.308425	1.290110	1.314286
00:00:00.056	1.306960	1.291575	1.316484
00:00:00.056	1.310623	1.290110	1.315018
00:00:00.057	1.306227	1.282051	1.320147
00:00:00.057	1.309158	1.291575	1.315018
00:00:00.057	1.309158	1.301832	1.312088
00:00:00.090	1.309158	1.295238	1.293773
00:00:00.090	1.314286	1.293773	1.300366
00:00:00.090	1.321612	1.326740	1.300366
00:00:00.091	1.315751	1.340659	1.290842
00:00:00.091	1.310623	1.351648	1.279121
00:00:00.091	1.315018	1.358242	1.298168
00:00:00.092	1.311355	1.323810	1.291575
00:00:00.092	1.312088	1.315751	1.302564
00:00:00.093	1.312088	1.291575	1.309158
00:00:00.093	1.302564	1.263004	1.304029
00:00:00.093	1.304762	1.270330	1.317949
00:00:00.094	1.295238	1.281319	1.317216
00:00:00.094	1.291575	1.287179	1.318681
00:00:00.094	1.309158	1.294505	1.317949
00:00:00.095	1.310623	1.278388	1.304762
00:00:00.095	1.319414	1.271062	1.296703
00:00:00.095	1.333333	1.295238	1.308425
00:00:00.096	1.317216	1.295971	1.299634
00:00:00.096	1.312088	1.306227	1.296703
00:00:00.096	1.312821	1.320879	1.291575
00:00:00.097	1.317216	1.329670	1.291575
00:00:00.097	1.312088	1.320147	1.300366
00:00:00.098	1.302564	1.319414	1.294505
00:00:00.098	1.306227	1.314286	1.304762
00:00:00.098	1.306960	1.304762	1.300366
00:00:00.099	1.300366	1.281319	1.296703
00:00:00.099	1.312821	1.271062	1.293040
00:00:00.099	1.318681	1.290110	1.316484
00:00:00.100	1.329670	1.292308	1.321612
00:00:00.100	1.336264	1.296703	1.305495
00:00:00.100	1.315751	1.320147	1.314286
00:00:00.101	1.285714	1.300366	1.302564
00:00:00.101	1.300366	1.302564	1.306227
00:00:00.101	1.287912	1.304029	1.300366
00:00:00.102	1.292308	1.338462	1.290842
00:00:00.102	1.305495	1.390476	1.287179
00:00:00.103	1.309158	1.360440	1.275458
00:00:00.103	1.316484	1.346520	1.297436
00:00:00.103	1.328205	1.323077	1.300366
00:00:00.104	1.320147	1.304762	1.299634
00:00:00.104	1.304762	1.280586	1.295238
00:00:00.104	1.306960	1.276190	1.303297
00:00:00.105	1.302564	1.273260	1.300366
00:00:00.105	1.294505	1.284249	1.284982
00:00:00.105	1.306227	1.310623	1.299634
00:00:00.106	1.317216	1.297436	1.326740
00:00:00.106	1.327473	1.295238	1.323077
00:00:00.106	1.298901	1.295238	1.300366
00:00:00.107	1.290110	1.293040	1.287179
00:00:00.107	1.293773	1.284249	1.300366
00:00:00.139	1.320147	1.304029	1.313553
00:00:00.140	1.317949	1.298168	1.300366
00:00:00.140	1.315751	1.289377	1.314286
00:00:00.140	1.320879	1.321612	1.308425
00:00:00.141	1.311355	1.328205	1.290842
00:00:00.141	1.301832	1.308425	1.280586
00:00:00.142	1.302564	1.317216	1.291575
00:00:00.145	1.312821	1.274725	1.284982
00:00:00.145	1.314286	1.288645	1.307692
00:00:00.145	1.305495	1.289377	1.303297
00:00:00.145	1.306227	1.287912	1.312821
00:00:00.145	1.306960	1.296703	1.314286
00:00:00.145	1.305495	1.305495	1.319414
00:00:00.145	1.301832	1.284249	1.312821
00:00:00.145	1.305495	1.294505	1.309158
00:00:00.145	1.314286	1.306960	1.305495
00:00:00.145	1.313553	1.312088	1.309158
00:00:00.145	1.310623	1.323810	1.307692
00:00:00.148	1.309158	1.314286	1.300366
00:00:00.148	1.309890	1.307692	1.291575
00:00:00.148	1.290842	1.300366	1.287179
00:00:00.148	1.305495	1.322344	1.295238
00:00:00.148	1.307692	1.321612	1.289377
00:00:00.148	1.303297	1.314286	1.289377
00:00:00.148	1.316484	1.312821	1.297436
00:00:00.148	1.324542	1.307692	1.299634
00:00:00.149	1.322344	1.302564	1.295238
00:00:00.150	1.321612	1.298168	1.312088
00:00:00.150	1.316484	1.274725	1.315751
00:00:00.150	1.309158	1.263736	1.318681
00:00:00.150	1.320879	1.276923	1.320147
00:00:00.150	1.318681	1.311355	1.315018
00:00:00.151	1.314286	1.332601	1.304762
00:00:00.151	1.309890	1.358242	1.300366
00:00:00.152	1.259341	1.369231	1.303297
00:00:00.152	1.282051	1.358242	1.296703
00:00:00.152	1.306227	1.329670	1.287179
00:00:00.153	1.297436	1.300366	1.295238
00:00:00.153	1.321612	1.290110	1.306227
00:00:00.153	1.342125	1.301832	1.302564
00:00:00.154	1.322344	1.302564	1.300366
00:00:00.154	1.306227	1.275458	1.289377
00:00:00.154	1.303297	1.273260	1.293773
00:00:00.155	1.306227	1.290110	1.311355
00:00:00.155	1.304762	1.290842	1.307692
00:00:00.155	1.298901	1.275458	1.309158
00:00:00.156	1.312821	1.290842	1.313553
00:00:00.156	1.317216	1.289377	1.314286
00:00:00.157	1.298901	1.274725	1.302564
00:00:00.157	1.312821	1.293040	1.310623
00:00:00.189	1.313553	1.306960	1.306960
00:00:00.189	1.306227	1.319414	1.301832
00:00:00.190	1.301832	1.300366	1.293773
00:00:00.190	1.312088	1.317949	1.294505
00:00:00.191	1.323810	1.339927	1.290110
00:00:00.191	1.316484	1.340659	1.295238
00:00:00.191	1.305495	1.327473	1.289377
00:00:00.192	1.318681	1.321612	1.296703
00:00:00.192	1.326007	1.312821	1.293773
00:00:00.192	1.306960	1.295971	1.294505
00:00:00.193	1.318681	1.289377	1.306960
00:00:00.193	1.300366	1.277656	1.306960
00:00:00.193	1.279121	1.257875	1.312088
00:00:00.194	1.300366	1.266667	1.323810
00:00:00.194	1.300366	1.263004	1.318681
00:00:00.194	1.291575	1.264469	1.316484
00:00:00.195	1.305495	1.279121	1.313553
00:00:00.195	1.310623	1.287912	1.298901
00:00:00.196	1.296703	1.309158	1.293773
00:00:00.197	1.318681	1.325275	1.298168
00:00:00.197	1.324542	1.323077	1.289377
00:00:00.197	1.320147	1.329670	1.296703
00:00:00.197	1.318681	1.327473	1.297436
00:00:00.197	1.300366	1.308425	1.274725
00:00:00.198	1.297436	1.310623	1.294505
00:00:00.198	1.302564	1.312088	1.317216
00:00:00.198	1.301832	1.296703	1.307692
00:00:00.199	1.330403	1.298168	1.319414
00:00:00.199	1.325275	1.293040	1.312821
00:00:00.199	1.305495	1.298168	1.304762
00:00:00.200	1.306227	1.300366	1.315018
00:00:00.200	1.320147	1.291575	1.311355
00:00:00.201	1.312088	1.298168	1.306960
00:00:00.201	1.320147	1.298901	1.306227
00:00:00.201	1.209524	1.301832	1.295238
00:00:00.202	1.193407	1.316484	1.286447
00:00:00.202	1.287912	1.328205	1.295971
00:00:00.202	1.378755	1.323810	1.286447
00:00:00.203	1.442491	1.304762	1.285714
00:00:00.203	1.417582	1.304762	1.298168
00:00:00.203	1.405861	1.299634	1.287179
00:00:00.204	1.395604	1.296703	1.300366
00:00:00.204	1.319414	1.296703	1.308425
00:00:00.204	1.237363	1.303297	1.336996
00:00:00.205	1.247619	1.306227	1.316484
00:00:00.205	1.223443	1.309158	1.309158
00:00:00.206	1.219780	1.297436	1.334066
00:00:00.206	1.308425	1.278388	1.316484
00:00:00.206	1.364103	1.288645	1.312088
00:00:00.207	1.312821	1.284982	1.296703
00:00:00.239	1.284249	1.300366	1.290842
00:00:00.239	1.271062	1.334799	1.290110
00:00:00.239	1.259341	1.354579	1.320879
00:00:00.241	1.215385	1.335531	1.327473
00:00:00.241	1.238828	1.301832	1.300366
00:00:00.241	1.372161	1.303297	1.292308
00:00:00.241	1.449084	1.311355	1.302564
00:00:00.241	1.512821	1.337729	1.295971
00:00:00.244	1.528205	1.349451	1.300366
00:00:00.244	1.428571	1.322344	1.322344
00:00:00.244	1.312088	1.271795	1.308425
00:00:00.244	1.203663	1.275458	1.298168
00:00:00.244	1.119414	1.306960	1.312088
00:00:00.244	1.152381	1.301832	1.299634
00:00:00.244	1.220513	1.310623	1.298901
00:00:00.244	1.285714	1.318681	1.309158
00:00:00.244	1.335531	1.312088	1.309158
00:00:00.245	1.317949	1.312821	1.309158
00:00:00.245	1.300366	1.331136	1.305495
00:00:00.246	1.292308	1.326007	1.287179
00:00:00.246	1.319414	1.336264	1.297436
00:00:00.246	1.399267	1.405128	1.300366
00:00:00.247	1.416117	1.428571	1.300366
00:00:00.247	1.402198	1.358974	1.293773
00:00:00.247	1.268864	1.315751	1.294505
00:00:00.248	1.223443	1.272527	1.298168
00:00:00.249	1.212454	1.232234	1.282051
00:00:00.249	1.273260	1.183150	1.257143
00:00:00.249	1.400000	1.175092	1.275458
00:00:00.249	1.418315	1.162637	1.299634
00:00:00.250	1.346520	1.183150	1.364103
00:00:00.250	1.262271	1.246886	1.347253
00:00:00.250	1.142125	1.335531	1.343590
00:00:00.251	1.235897	1.397802	1.309890
00:00:00.251	1.349451	1.381685	1.305495
00:00:00.251	1.397070	1.372894	1.335531
00:00:00.252	1.431502	1.423443	1.333333
00:00:00.252	1.437363	1.372894	1.304029
00:00:00.252	1.371429	1.392674	1.293040
00:00:00.253	1.315751	1.472527	1.304029
00:00:00.253	1.297436	1.308425	1.305495
00:00:00.253	1.271062	1.123077	1.296703
00:00:00.254	1.285714	1.172161	1.302564
00:00:00.254	1.241026	1.285714	1.317949
00:00:00.255	1.243956	1.378022	1.320147
00:00:00.255	1.252747	1.449817	1.334066
00:00:00.255	1.249084	1.322344	1.304762
00:00:00.256	1.219780	1.158242	1.291575
00:00:00.256	1.221245	1.378022	1.265201
00:00:00.256	1.367033	1.574359	1.300366
00:00:00.288	1.473260	1.361172	1.295238
00:00:00.289	1.477656	1.112088	1.315018
00:00:00.289	1.385348	1.031502	1.295971
00:00:00.290	1.221245	1.030037	1.268864
00:00:00.290	1.141392	1.178755	1.280586
00:00:00.290	1.150916	1.179487	1.276923
00:00:00.291	1.282784	1.167033	1.276923
00:00:00.291	1.336996	1.106227	1.288645
00:00:00.291	1.349451	1.209524	1.297436
00:00:00.292	1.325275	1.495971	1.313553
00:00:00.292	1.312088	1.579487	1.333333
00:00:00.292	1.307692	1.450549	1.312088
00:00:00.293	1.314286	1.362637	1.304029
00:00:00.293	1.273993	1.333333	1.315018
00:00:00.293	1.361172	1.339927	1.320147
00:00:00.294	1.470330	1.323810	1.309890
00:00:00.294	1.454945	1.218315	1.301832
00:00:00.295	1.439560	1.120147	1.297436
00:00:00.295	1.464469	1.213919	1.300366
00:00:00.295	1.419780	1.327473	1.291575
00:00:00.296	1.365568	1.336996	1.295238
00:00:00.296	1.324542	1.354579	1.297436
00:00:00.296	1.295971	1.555311	1.309158
00:00:00.297	1.172894	1.603663	1.316484
00:00:00.297	1.022711	1.604396	1.306227
00:00:00.297	1.026374	1.431502	1.283516
00:00:00.298	1.098901	1.305495	1.307692
00:00:00.298	1.324542	1.276190	1.345788
00:00:00.298	1.511355	1.338462	1.327473
00:00:00.299	1.451282	1.293773	1.323077
00:00:00.299	1.251282	1.232967	1.304029
00:00:00.300	1.230037	1.223443	1.287179
00:00:00.300	1.267399	1.127473	1.267399
00:00:00.301	1.350916	1.194139	1.272527
00:00:00.301	1.449084	1.324542	1.280586
00:00:00.301	1.316484	1.350916	1.275458
00:00:00.301	1.282784	1.364835	1.276190
00:00:00.303	1.124542	1.552381	1.288645
00:00:00.303	1.100366	1.559707	1.265934
00:00:00.303	1.199267	1.412454	1.235165
00:00:00.304	1.432967	1.300366	1.282051
00:00:00.304	1.514286	1.291575	1.313553
00:00:00.304	1.506227	1.304762	1.348718
00:00:00.304	1.305495	1.533333	1.401465
00:00:00.304	1.182418	1.346520	1.410256
00:00:00.306	1.168498	0.987546	1.339927
00:00:00.306	1.296703	0.875458	1.345788
00:00:00.306	1.479121	0.978755	1.369963
00:00:00.306	1.604396	1.268864	1.394139
00:00:00.306	1.530403	1.556044	1.400000
00:00:00.338	1.408791	1.558242	1.387546
00:00:00.340	1.308425	1.447619	1.368498
00:00:00.340	1.224176	1.362637	1.358974
00:00:00.340	1.180952	1.167766	1.331136
00:00:00.340	1.221245	0.980952	1.314286
00:00:00.340	1.194872	0.967766	1.281319
00:00:00.340	1.216117	1.049817	1.259341
00:00:00.341	1.250549	1.056410	1.280586
00:00:00.342	1.296703	1.166300	1.282784
00:00:00.342	1.296703	1.268864	1.284982
00:00:00.342	1.326740	1.378755	1.304029
00:00:00.342	1.361172	1.516484	1.326740
00:00:00.342	1.368498	1.552381	1.312821
00:00:00.343	1.349451	1.428571	1.290842
00:00:00.343	1.334066	1.365568	1.284982
00:00:00.344	1.322344	1.402198	1.295971
00:00:00.344	1.323077	1.424176	1.305495
00:00:00.344	1.322344	1.401465	1.290842
00:00:00.345	1.318681	1.390476	1.268864
00:00:00.345	1.333333	1.385348	1.292308
00:00:00.345	1.323810	1.342125	1.291575
00:00:00.346	1.308425	1.330403	1.287179
00:00:00.346	1.310623	1.302564	1.287179
00:00:00.346	1.309158	1.257875	1.276923
00:00:00.347	1.290110	1.274725	1.268132
00:00:00.347	1.306960	1.293773	1.282051
00:00:00.347	1.310623	1.289377	1.298168
00:00:00.348	1.306227	1.312088	1.298901
00:00:00.348	1.317949	1.335531	1.309890
00:00:00.349	1.311355	1.327473	1.307692
00:00:00.349	1.299634	1.340659	1.300366
00:00:00.349	1.305495	1.360440	1.309158
00:00:00.350	1.317949	1.409524	1.310623
00:00:00.350	1.299634	1.463736	1.307692
00:00:00.350	1.304029	1.387546	1.312821
00:00:00.351	1.310623	1.267399	1.306227
00:00:00.351	1.230037	1.219780	1.304762
00:00:00.351	1.257875	1.222711	1.296703
00:00:00.352	1.326740	1.219048	1.286447
00:00:00.352	1.389744	1.252747	1.287912
00:00:00.353	1.408059	1.281319	1.281319
00:00:00.353	1.372894	1.341392	1.276923
00:00:00.353	1.291575	1.368498	1.298901
00:00:00.354	1.253480	1.348718	1.300366
00:00:00.354	1.264469	1.276923	1.298168
00:00:00.354	1.298168	1.260073	1.306227
00:00:00.355	1.318681	1.236630	1.310623
00:00:00.355	1.308425	1.244689	1.306960
00:00:00.355	1.310623	1.291575	1.300366
00:00:00.356	1.304029	1.304029	1.304029
00:00:00.388	1.299634	1.293040	1.292308
00:00:00.388	1.306227	1.337729	1.306960
00:00:00.389	1.329670	1.368498	1.308425
00:00:00.389	1.327473	1.360440	1.293773
00:00:00.389	1.312088	1.353846	1.306960
00:00:00.390	1.307692	1.337729	1.298901
00:00:00.390	1.315018	1.361172	1.290110
00:00:00.390	1.331136	1.383883	1.309158
00:00:00.391	1.317949	1.340659	1.305495
00:00:00.391	1.282051	1.275458	1.295971
00:00:00.391	1.284249	1.252015	1.309158
00:00:00.392	1.288645	1.257875	1.304762
00:00:00.392	1.297436	1.272527	1.309158
00:00:00.393	1.315751	1.282784	1.320879
00:00:00.393	1.315751	1.295238	1.314286
00:00:00.393	1.320147	1.303297	1.305495
00:00:00.394	1.323077	1.314286	1.312088
00:00:00.394	1.324542	1.290842	1.303297
00:00:00.394	1.318681	1.290110	1.308425
00:00:00.395	1.320879	1.298168	1.303297
00:00:00.395	1.313553	1.298168	1.285714
00:00:00.395	1.312821	1.314286	1.291575
00:00:00.396	1.297436	1.293040	1.295971
00:00:00.396	1.258608	1.279853	1.287912
00:00:00.396	1.250549	1.286447	1.291575
00:00:00.398	1.267399	1.295971	1.293040
00:00:00.398	1.300366	1.298901	1.299634
00:00:00.399	1.363370	1.306227	1.307692
00:00:00.399	1.392674	1.314286	1.304029
00:00:00.399	1.380952	1.283516	1.309890
00:00:00.400	1.342125	1.309890	1.308425
00:00:00.400	1.279121	1.312821	1.312821
00:00:00.400	1.267399	1.273260	1.309158
00:00:00.400	1.306227	1.277656	1.312088
00:00:00.400	1.283516	1.279853	1.300366
00:00:00.400	1.294505	1.295238	1.304762
00:00:00.403	1.298901	1.298168	1.302564
00:00:00.403	1.293040	1.319414	1.301832
00:00:00.403	1.313553	1.320879	1.301832
00:00:00.403	1.357509	1.326740	1.300366
00:00:00.403	1.333333	1.314286	1.296703
00:00:00.403	1.304029	1.315018	1.299634
00:00:00.403	1.317216	1.307692	1.308425
00:00:00.403	1.299634	1.290842	1.305495
00:00:00.404	1.303297	1.289377	1.315018
00:00:00.404	1.309890	1.279121	1.299634
00:00:00.404	1.311355	1.276190	1.312821
00:00:00.406	1.316484	1.271795	1.311355
00:00:00.406	1.296703	1.273993	1.296703
00:00:00.406	1.296703	1.287912	1.315751
00:00:00.438	1.287179	1.300366	1.312821
00:00:00.438	1.299634	1.309158	1.304029
00:00:00.438	1.333333	1.323077	1.295238
00:00:00.439	1.312088	1.330403	1.294505
00:00:00.439	1.293773	1.334066	1.299634
00:00:00.439	1.306960	1.338462	1.294505
00:00:00.440	1.313553	1.339194	1.295238
00:00:00.440	1.312088	1.306227	1.288645
00:00:00.440	1.329670	1.300366	1.301832
00:00:00.441	1.322344	1.308425	1.304762
00:00:00.441	1.270330	1.304762	1.312088
00:00:00.442	1.265201	1.270330	1.302564
00:00:00.442	1.317216	1.232967	1.309890
00:00:00.442	1.339927	1.227839	1.306960
00:00:00.443	1.360440	1.240293	1.309158
00:00:00.443	1.378022	1.290110	1.317949
00:00:00.443	1.322344	1.307692	1.304029
00:00:00.444	1.258608	1.358242	1.315751
00:00:00.444	1.248352	1.383150	1.299634
00:00:00.444	1.268864	1.367033	1.303297
00:00:00.445	1.321612	1.340659	1.289377
00:00:00.445	1.384615	1.309890	1.291575
00:00:00.445	1.363370	1.303297	1.290842
00:00:00.446	1.338462	1.304762	1.296703
00:00:00.446	1.295971	1.309158	1.308425
00:00:00.447	1.305495	1.298901	1.311355
00:00:00.447	1.313553	1.282784	1.313553
00:00:00.447	1.306227	1.295238	1.317216
00:00:00.448	1.301832	1.290842	1.309158
00:00:00.448	1.190476	1.276923	1.310623
00:00:00.448	1.216850	1.278388	1.300366
00:00:00.449	1.311355	1.315751	1.308425
00:00:00.449	1.410256	1.348718	1.317949
00:00:00.449	1.439560	1.375092	1.310623
00:00:00.450	1.356044	1.333333	1.294505
00:00:00.450	1.276923	1.283516	1.294505
00:00:00.451	1.268864	1.231502	1.302564
00:00:00.451	1.230037	1.243956	1.297436
00:00:00.451	1.221245	1.239560	1.292308
00:00:00.452	1.195604	1.209524	1.286447
00:00:00.452	1.225641	1.241758	1.296703
00:00:00.452	1.311355	1.323077	1.300366
00:00:00.453	1.369963	1.356044	1.309158
00:00:00.453	1.408791	1.342125	1.314286
00:00:00.453	1.428571	1.309890	1.308425
00:00:00.454	1.360440	1.270330	1.311355
00:00:00.454	1.304029	1.279853	1.317216
00:00:00.454	1.245421	1.284249	1.304029
00:00:00.455	1.254945	1.301832	1.314286
00:00:00.455	1.252015	1.326007	1.305495
00:00:00.487	1.276923	1.312821	1.296703
00:00:00.488	1.294505	1.309158	1.312088
00:00:00.488	1.319414	1.312088	1.293773
00:00:00.488	1.353114	1.341392	1.305495
00:00:00.489	1.343590	1.338462	1.294505
00:00:00.489	1.345788	1.343590	1.298168
00:00:00.489	1.288645	1.334066	1.299634
00:00:00.490	1.261538	1.320147	1.297436
00:00:00.490	1.295971	1.312088	1.294505
00:00:00.491	1.337729	1.282784	1.295971
00:00:00.491	1.370696	1.279853	1.298168
00:00:00.491	1.369231	1.290110	1.315751
00:00:00.492	1.347253	1.307692	1.316484
00:00:00.492	1.328938	1.311355	1.306960
00:00:00.492	1.313553	1.314286	1.320879
00:00:00.493	1.263736	1.311355	1.309158
00:00:00.493	1.271062	1.295238	1.300366
00:00:00.493	1.306227	1.301832	1.312821
00:00:00.496	1.299634	1.296703	1.301832
00:00:00.496	1.308425	1.283516	1.290842
00:00:00.496	1.331868	1.315751	1.296703
00:00:00.496	1.332601	1.311355	1.293773
00:00:00.496	1.313553	1.299634	1.287179
00:00:00.496	1.315751	1.336996	1.293773
00:00:00.496	1.304029	1.358242	1.294505
00:00:00.496	1.307692	1.356044	1.296703
00:00:00.499	1.305495	1.341392	1.309158
00:00:00.499	1.305495	1.322344	1.309158
00:00:00.499	1.308425	1.313553	1.316484
00:00:00.499	1.309158	1.330403	1.318681
00:00:00.499	1.295971	1.343590	1.312821
00:00:00.499	1.298168	1.329670	1.314286
00:00:00.499	1.304762	1.275458	1.315018
00:00:00.499	1.312088	1.276190	1.303297
00:00:00.499	1.314286	1.310623	1.314286
00:00:00.500	1.320147	1.367033	1.308425
00:00:00.500	1.309158	1.326740	1.293773
00:00:00.501	1.304029	1.255678	1.298901
00:00:00.501	1.309890	1.225641	1.293773
00:00:00.501	1.298901	1.209524	1.276923
00:00:00.502	1.304762	1.213919	1.295971
00:00:00.502	1.306227	1.207326	1.298901
00:00:00.502	1.304762	1.171429	1.276923
00:00:00.503	1.300366	1.218315	1.290110
00:00:00.503	1.312821	1.301832	1.303297
00:00:00.503	1.295238	1.312088	1.298168
00:00:00.504	1.306227	1.336996	1.310623
00:00:00.504	1.307692	1.361905	1.315751
00:00:00.505	1.305495	1.351648	1.308425
00:00:00.505	1.312088	1.390476	1.312088
00:00:00.537	1.316484	1.386081	1.313553
00:00:00.537	1.318681	1.341392	1.314286
00:00:00.538	1.323810	1.331868	1.304762
00:00:00.538	1.320147	1.331868	1.298901
00:00:00.538	1.321612	1.317949	1.301832
00:00:00.539	1.328938	1.316484	1.301832
00:00:00.539	1.312088	1.317216	1.297436
00:00:00.540	1.311355	1.322344	1.303297
00:00:00.540	1.287912	1.293773	1.285714
00:00:00.540	1.309158	1.296703	1.287179
00:00:00.541	1.315018	1.318681	1.308425
00:00:00.542	1.293773	1.312821	1.294505
00:00:00.542	1.293040	1.321612	1.301832
00:00:00.542	1.282784	1.301099	1.303297
00:00:00.542	1.284982	1.301099	1.309890
00:00:00.542	1.284249	1.294505	1.304029
00:00:00.543	1.329670	1.298901	1.318681
00:00:00.543	1.331868	1.295971	1.307692
00:00:00.543	1.328205	1.309158	1.311355
00:00:00.544	1.324542	1.297436	1.298901
00:00:00.544	1.306227	1.304029	1.303297
00:00:00.545	1.279853	1.285714	1.288645
00:00:00.545	1.284249	1.282051	1.290842
00:00:00.545	1.293773	1.293773	1.293773
00:00:00.546	1.298901	1.300366	1.303297
00:00:00.546	1.315018	1.290110	1.300366
00:00:00.546	1.344322	1.289377	1.304029
00:00:00.547	1.332601	1.287179	1.300366
00:00:00.547	1.315018	1.312088	1.312821
00:00:00.547	1.279121	1.309158	1.306960
00:00:00.548	1.313553	1.314286	1.312821
00:00:00.548	1.354579	1.329670	1.321612
00:00:00.548	1.372161	1.348718	1.320879
00:00:00.549	1.358242	1.327473	1.310623
00:00:00.549	1.356777	1.318681	1.307692
00:00:00.550	1.317216	1.301832	1.297436
00:00:00.550	1.292308	1.323810	1.299634
00:00:00.550	1.275458	1.328938	1.293773
00:00:00.551	1.256410	1.329670	1.286447
00:00:00.551	1.256410	1.329670	1.299634
00:00:00.551	1.265934	1.320147	1.300366
00:00:00.552	1.246886	1.290110	1.290110
00:00:00.552	1.191209	1.271795	1.295971
00:00:00.552	1.223443	1.267399	1.311355
00:00:00.553	1.303297	1.294505	1.306960
00:00:00.553	1.397070	1.320879	1.306227
00:00:00.553	1.437363	1.304029	1.311355
00:00:00.554	1.419780	1.294505	1.315018
00:00:00.554	1.344322	1.312821	1.316484
00:00:00.555	1.284982	1.300366	1.317949
00:00:00.587	1.271062	1.255678	1.309890
00:00:00.587	1.330403	1.243956	1.304762
00:00:00.587	1.370696	1.243956	1.292308
00:00:00.588	1.364835	1.315751	1.306227
00:00:00.588	1.320147	1.354579	1.300366
00:00:00.589	1.278388	1.328938	1.287912
00:00:00.589	1.255678	1.298168	1.297436
00:00:00.589	1.271795	1.297436	1.286447
00:00:00.590	1.289377	1.310623	1.283516
00:00:00.590	1.312821	1.321612	1.308425
00:00:00.590	1.326007	1.309158	1.306227
00:00:00.592	1.309158	1.306960	1.309890
00:00:00.592	1.316484	1.315018	1.313553
00:00:00.592	1.317216	1.303297	1.309158
00:00:00.592	1.312821	1.302564	1.313553
00:00:00.592	1.313553	1.326007	1.311355
00:00:00.592	1.312088	1.301099	1.309890
00:00:00.594	1.309890	1.304029	1.307692
00:00:00.594	1.304762	1.329670	1.308425
00:00:00.594	1.309890	1.330403	1.309158
00:00:00.594	1.315751	1.326740	1.297436
00:00:00.594	1.324542	1.318681	1.298901
00:00:00.597	1.322344	1.347253	1.303297
00:00:00.597	1.317949	1.315751	1.300366
00:00:00.597	1.318681	1.369963	1.302564
00:00:00.597	1.314286	1.392674	1.299634
00:00:00.597	1.300366	1.385348	1.295971
