timestamp	ch1	ch2	ch3
00:00:00.000	1.306227	1.272527	1.307692
00:00:00.000	1.312088	1.288645	1.316484
00:00:00.000	1.312821	1.297436	1.307692
00:00:00.000	1.297436	1.292308	1.295238
00:00:00.000	1.317949	1.315751	1.300366
00:00:00.000	1.309890	1.327473	1.289377
00:00:00.001	1.311355	1.334066	1.290842
00:00:00.001	1.307692	1.324542	1.288645
00:00:00.001	1.312088	1.323810	1.295238
00:00:00.002	1.315018	1.317216	1.298901
00:00:00.002	1.316484	1.318681	1.298901
00:00:00.003	1.312088	1.304029	1.305495
00:00:00.003	1.309890	1.295971	1.314286
00:00:00.003	1.313553	1.282784	1.306960
00:00:00.004	1.304762	1.258608	1.306960
00:00:00.004	1.316484	1.273993	1.323810
00:00:00.004	1.306960	1.276190	1.316484
00:00:00.005	1.299634	1.277656	1.312821
00:00:00.005	1.311355	1.305495	1.315751
00:00:00.005	1.304762	1.312088	1.294505
00:00:00.006	1.312088	1.334066	1.302564
00:00:00.006	1.312821	1.334799	1.297436
00:00:00.006	1.300366	1.342125	1.293040
00:00:00.007	1.316484	1.354579	1.300366
00:00:00.007	1.315751	1.342125	1.292308
00:00:00.008	1.317216	1.317949	1.284249
00:00:00.008	1.317949	1.319414	1.295238
00:00:00.008	1.301099	1.303297	1.295971
00:00:00.009	1.309890	1.297436	1.304762
00:00:00.009	1.309890	1.293773	1.309890
00:00:00.009	1.309158	1.295971	1.315018
00:00:00.010	1.293040	1.263004	1.306960
00:00:00.010	1.308425	1.271795	1.317949
00:00:00.010	1.306960	1.276923	1.311355
00:00:00.011	1.309158	1.288645	1.317216
00:00:00.011	1.309158	1.293773	1.312088
00:00:00.011	1.304029	1.279853	1.298168
00:00:00.012	1.315018	1.294505	1.307692
00:00:00.012	1.307692	1.293773	1.295238
00:00:00.013	1.309890	1.315018	1.298901
00:00:00.013	1.318681	1.343590	1.298901
00:00:00.013	1.314286	1.342125	1.284249
00:00:00.014	1.320147	1.345055	1.297436
00:00:00.014	1.314286	1.332601	1.295238
00:00:00.014	1.312088	1.317949	1.306960
00:00:00.015	1.312088	1.298901	1.312088
00:00:00.015	1.303297	1.268132	1.300366
00:00:00.015	1.309890	1.279121	1.315018
00:00:00.016	1.304762	1.291575	1.309158
00:00:00.016	1.306227	1.309890	1.318681
00:00:00.048	1.302564	1.316484	1.314286
00:00:00.049	1.291575	1.306960	1.307692
00:00:00.049	1.304762	1.306227	1.305495
00:00:00.049	1.310623	1.295971	1.303297
00:00:00.050	1.318681	1.303297	1.300366
00:00:00.050	1.318681	1.299634	1.294505
00:00:00.050	1.306960	1.309890	1.290842
00:00:00.051	1.315751	1.317216	1.293773
00:00:00.051	1.313553	1.319414	1.295971
00:00:00.052	1.309890	1.331136	1.296703
00:00:00.052	1.309890	1.311355	1.298168
00:00:00.052	1.302564	1.312088	1.304029
00:00:00.053	1.307692	1.320147	1.307692
00:00:00.053	1.314286	1.312088	1.315751
00:00:00.053	1.312088	1.302564	1.317216
00:00:00.054	1.300366	1.292308	1.317949
00:00:00.054	1.310623	1.293040	1.323810
00:00:00.054	1.302564	1.286447	1.321612
00:00:00.055	1.309158	1.288645	1.315751
00:00:00.055	1.306227	1.297436	1.317216
00:00:00.055	1.299634	1.294505	1.295971
00:00:00.058	1.315751	1.326740	1.303297
00:00:00.058	1.310623	1.326007	1.295238
00:00:00.058	1.314286	1.328938	1.294505
00:00:00.058	1.315018	1.336264	1.292308
00:00:00.058	1.312821	1.326740	1.295971
00:00:00.058	1.308425	1.314286	1.300366
00:00:00.058	1.314286	1.291575	1.299634
00:00:00.058	1.316484	1.285714	1.302564
00:00:00.061	1.310623	1.290110	1.315751
00:00:00.061	1.310623	1.294505	1.317216
00:00:00.061	1.307692	1.289377	1.316484
00:00:00.061	1.311355	1.286447	1.316484
00:00:00.061	1.313553	1.292308	1.312821
00:00:00.061	1.310623	1.296703	1.323077
00:00:00.061	1.315018	1.309158	1.315751
00:00:00.061	1.305495	1.299634	1.295238
00:00:00.062	1.309158	1.308425	1.301832
00:00:00.062	1.309890	1.309890	1.297436
00:00:00.062	1.312821	1.328205	1.293773
00:00:00.063	1.317216	1.321612	1.291575
00:00:00.063	1.307692	1.302564	1.286447
00:00:00.063	1.304029	1.306227	1.289377
00:00:00.064	1.309158	1.306960	1.294505
00:00:00.064	1.312821	1.287179	1.304029
00:00:00.064	1.306227	1.278388	1.302564
00:00:00.065	1.312088	1.294505	1.300366
00:00:00.065	1.312088	1.311355	1.316484
00:00:00.066	1.309158	1.310623	1.316484
00:00:00.066	1.296703	1.295238	1.314286
00:00:00.098	1.303297	1.305495	1.319414
00:00:00.098	1.300366	1.339927	1.308425
00:00:00.099	1.309158	1.319414	1.309158
00:00:00.099	1.309158	1.301099	1.306960
00:00:00.099	1.301832	1.286447	1.295971
00:00:00.100	1.309890	1.306227	1.303297
00:00:00.100	1.316484	1.315751	1.296703
00:00:00.101	1.309890	1.324542	1.288645
00:00:00.101	1.319414	1.340659	1.284249
00:00:00.101	1.317216	1.342125	1.285714
00:00:00.102	1.310623	1.313553	1.284982
00:00:00.102	1.313553	1.304762	1.298168
00:00:00.102	1.306960	1.281319	1.309890
00:00:00.103	1.312088	1.263736	1.319414
00:00:00.103	1.305495	1.255678	1.311355
00:00:00.103	1.298901	1.266667	1.323077
00:00:00.104	1.302564	1.300366	1.321612
00:00:00.104	1.306960	1.341392	1.319414
00:00:00.104	1.315751	1.315018	1.315018
00:00:00.105	1.314286	1.294505	1.312821
00:00:00.105	1.312088	1.276923	1.308425
00:00:00.106	1.312088	1.258608	1.304762
00:00:00.106	1.306227	1.243956	1.300366
00:00:00.106	1.290110	1.277656	1.287912
00:00:00.107	1.309158	1.327473	1.300366
00:00:00.107	1.305495	1.326007	1.293040
00:00:00.107	1.306960	1.317216	1.291575
00:00:00.108	1.317949	1.335531	1.306227
00:00:00.108	1.326740	1.331136	1.298901
00:00:00.108	1.324542	1.330403	1.308425
00:00:00.110	1.350916	1.335531	1.305495
00:00:00.110	1.329670	1.336264	1.310623
00:00:00.110	1.315018	1.320147	1.311355
00:00:00.110	1.301832	1.289377	1.300366
00:00:00.110	1.304762	1.297436	1.319414
00:00:00.111	1.303297	1.329670	1.316484
00:00:00.111	1.298168	1.339927	1.309158
00:00:00.111	1.298168	1.371429	1.311355
00:00:00.112	1.299634	1.360440	1.302564
00:00:00.112	1.300366	1.320147	1.290110
00:00:00.112	1.321612	1.314286	1.298168
00:00:00.113	1.326007	1.304762	1.294505
00:00:00.113	1.306227	1.287912	1.294505
00:00:00.113	1.310623	1.306960	1.298901
00:00:00.114	1.302564	1.290842	1.287179
00:00:00.114	1.317216	1.293040	1.296703
00:00:00.115	1.283516	1.307692	1.310623
00:00:00.115	1.276923	1.305495	1.320147
00:00:00.115	1.310623	1.305495	1.323810
00:00:00.116	1.323077	1.271795	1.316484
00:00:00.148	1.383150	1.234432	1.312821
00:00:00.148	1.314286	1.198535	1.304029
00:00:00.149	1.320147	1.182418	1.304029
00:00:00.149	1.298168	1.229304	1.315018
00:00:00.149	1.270330	1.291575	1.310623
00:00:00.150	1.278388	1.371429	1.304029
00:00:00.150	1.309890	1.391209	1.294505
00:00:00.150	1.275458	1.327473	1.286447
00:00:00.151	1.283516	1.328205	1.290842
00:00:00.151	1.300366	1.315751	1.290842
00:00:00.151	1.322344	1.341392	1.297436
00:00:00.152	1.471795	1.401465	1.306960
00:00:00.152	1.393407	1.413187	1.309158
00:00:00.152	1.297436	1.387546	1.314286
00:00:00.154	1.291575	1.384615	1.307692
00:00:00.154	1.282784	1.334799	1.312821
00:00:00.154	1.290110	1.303297	1.330403
00:00:00.154	1.302564	1.284249	1.332601
00:00:00.154	1.336996	1.242491	1.323810
00:00:00.155	1.322344	1.225641	1.304762
00:00:00.155	1.323810	1.235165	1.284249
00:00:00.155	1.334066	1.302564	1.294505
00:00:00.157	1.318681	1.314286	1.294505
00:00:00.157	1.298901	1.298168	1.291575
00:00:00.157	1.263736	1.317216	1.300366
00:00:00.157	1.238095	1.313553	1.298901
00:00:00.157	1.284982	1.304762	1.304029
00:00:00.157	1.294505	1.304029	1.315018
00:00:00.158	1.277656	1.278388	1.297436
00:00:00.158	1.290110	1.283516	1.304029
00:00:00.159	1.296703	1.306960	1.305495
00:00:00.159	1.299634	1.321612	1.305495
00:00:00.159	1.308425	1.297436	1.308425
00:00:00.160	1.294505	1.263736	1.308425
00:00:00.161	1.310623	1.292308	1.317216
00:00:00.161	1.358974	1.299634	1.308425
00:00:00.161	1.322344	1.305495	1.310623
00:00:00.162	1.254945	1.326007	1.313553
00:00:00.162	1.273993	1.328205	1.309158
00:00:00.162	1.377289	1.305495	1.282784
00:00:00.162	1.371429	1.290110	1.286447
00:00:00.162	1.322344	1.302564	1.297436
00:00:00.163	1.281319	1.300366	1.312088
00:00:00.163	1.309890	1.323810	1.312821
00:00:00.164	1.385348	1.329670	1.307692
00:00:00.164	1.394139	1.312088	1.295238
00:00:00.164	1.326740	1.323810	1.298901
00:00:00.165	1.312088	1.301832	1.298901
00:00:00.165	1.297436	1.291575	1.308425
00:00:00.165	1.322344	1.301832	1.334066
00:00:00.198	1.334066	1.284249	1.345055
00:00:00.198	1.269597	1.271062	1.300366
00:00:00.198	1.253480	1.297436	1.286447
00:00:00.199	1.258608	1.293773	1.295971
00:00:00.199	1.281319	1.295971	1.300366
00:00:00.199	1.296703	1.281319	1.288645
00:00:00.200	1.290842	1.295238	1.300366
00:00:00.200	1.323077	1.299634	1.300366
00:00:00.200	1.342125	1.317949	1.284249
00:00:00.201	1.380220	1.328205	1.299634
00:00:00.201	1.324542	1.315018	1.297436
00:00:00.201	1.295971	1.335531	1.299634
00:00:00.202	1.312821	1.340659	1.309158
00:00:00.202	1.309158	1.336264	1.314286
00:00:00.203	1.306960	1.308425	1.315018
00:00:00.203	1.297436	1.294505	1.317216
00:00:00.203	1.300366	1.277656	1.312088
00:00:00.204	1.296703	1.251282	1.314286
00:00:00.204	1.293040	1.248352	1.347253
00:00:00.204	1.287179	1.252015	1.341392
00:00:00.205	1.295238	1.274725	1.328938
00:00:00.205	1.299634	1.302564	1.304029
00:00:00.205	1.284982	1.315751	1.271062
00:00:00.206	1.306227	1.337729	1.338462
00:00:00.206	1.320147	1.347253	1.309158
00:00:00.206	1.317216	1.387546	1.228571
00:00:00.207	1.320879	1.378022	1.197070
00:00:00.207	1.323077	1.350183	1.242491
00:00:00.208	1.335531	1.332601	1.290842
00:00:00.208	1.350916	1.320879	1.313553
00:00:00.208	1.316484	1.320147	1.343590
00:00:00.209	1.259341	1.290842	1.337729
00:00:00.209	1.267399	1.229304	1.314286
00:00:00.209	1.288645	1.213187	1.312821
00:00:00.210	1.305495	1.224908	1.318681
00:00:00.210	1.323810	1.296703	1.320879
00:00:00.210	1.320147	1.340659	1.298901
00:00:00.211	1.322344	1.347253	1.294505
00:00:00.211	1.319414	1.360440	1.295238
00:00:00.211	1.307692	1.362637	1.289377
00:00:00.212	1.296703	1.340659	1.285714
00:00:00.212	1.306227	1.347253	1.287912
00:00:00.213	1.313553	1.298168	1.287179
00:00:00.213	1.312821	1.278388	1.290842
00:00:00.214	1.309890	1.273993	1.299634
00:00:00.214	1.304029	1.287912	1.308425
00:00:00.214	1.301099	1.287912	1.303297
00:00:00.214	1.306227	1.304762	1.312088
00:00:00.215	1.309890	1.321612	1.314286
00:00:00.215	1.301099	1.306960	1.306960
00:00:00.247	1.308425	1.335531	1.318681
00:00:00.251	1.299634	1.300366	1.311355
00:00:00.251	1.321612	1.309890	1.323810
00:00:00.251	1.326007	1.309158	1.315751
00:00:00.251	1.338462	1.312821	1.318681
00:00:00.251	1.315751	1.301832	1.310623
00:00:00.251	1.312088	1.296703	1.306227
00:00:00.251	1.307692	1.287179	1.293040
00:00:00.251	1.317216	1.284249	1.289377
00:00:00.251	1.305495	1.280586	1.287179
00:00:00.251	1.309158	1.299634	1.293040
00:00:00.251	1.284249	1.286447	1.289377
00:00:00.252	1.295238	1.293040	1.295238
00:00:00.254	1.293773	1.292308	1.291575
00:00:00.254	1.319414	1.337729	1.293773
00:00:00.254	1.311355	1.386081	1.316484
00:00:00.254	1.259341	1.339194	1.317216
00:00:00.254	1.270330	1.276923	1.323077
00:00:00.254	1.294505	1.265934	1.315018
00:00:00.254	1.320879	1.269597	1.315751
00:00:00.254	1.357509	1.290842	1.309158
00:00:00.255	1.358974	1.283516	1.297436
00:00:00.255	1.387546	1.281319	1.304029
00:00:00.255	1.355311	1.226374	1.290842
00:00:00.256	1.305495	1.219048	1.287179
00:00:00.256	1.291575	1.262271	1.290110
00:00:00.257	1.279121	1.295238	1.291575
00:00:00.258	1.269597	1.365568	1.295971
00:00:00.258	1.287912	1.408059	1.297436
00:00:00.258	1.285714	1.373626	1.303297
00:00:00.258	1.221978	1.334799	1.306227
00:00:00.258	1.263004	1.315751	1.304762
00:00:00.259	1.325275	1.300366	1.323077
00:00:00.259	1.367033	1.279853	1.315751
00:00:00.259	1.400000	1.281319	1.314286
00:00:00.260	1.416850	1.302564	1.315751
00:00:00.260	1.330403	1.312821	1.309890
00:00:00.260	1.298168	1.312821	1.312821
00:00:00.261	1.280586	1.304029	1.300366
00:00:00.261	1.287179	1.315751	1.303297
00:00:00.262	1.336996	1.312088	1.289377
00:00:00.262	1.367766	1.309890	1.250549
00:00:00.262	1.325275	1.334799	1.241758
00:00:00.263	1.327473	1.320879	1.235897
00:00:00.263	1.375092	1.313553	1.290842
00:00:00.263	1.366300	1.295971	1.355311
00:00:00.264	1.323077	1.317216	1.342857
00:00:00.264	1.309890	1.384615	1.368498
00:00:00.264	1.265201	1.444689	1.335531
00:00:00.265	1.214652	1.377289	1.326740
00:00:00.297	1.156044	1.285714	1.327473
00:00:00.298	1.186813	1.277656	1.360440
00:00:00.298	1.263736	1.260806	1.345788
00:00:00.298	1.302564	1.227839	1.334066
00:00:00.298	1.380220	1.201465	1.339194
00:00:00.299	1.409524	1.173626	1.282784
00:00:00.299	1.320879	1.141392	1.237363
00:00:00.299	1.257875	1.189011	1.253480
00:00:00.300	1.260806	1.256410	1.256410
00:00:00.300	1.292308	1.309890	1.268132
00:00:00.301	1.339927	1.338462	1.282784
00:00:00.301	1.380220	1.344322	1.295238
00:00:00.301	1.436630	1.345055	1.304029
00:00:00.302	1.408791	1.331136	1.296703
00:00:00.302	1.333333	1.320147	1.302564
00:00:00.302	1.280586	1.322344	1.300366
00:00:00.303	1.204396	1.312088	1.306960
00:00:00.303	1.255678	1.345788	1.308425
00:00:00.303	1.284249	1.391941	1.320147
00:00:00.304	1.282784	1.380220	1.315018
00:00:00.304	1.226374	1.330403	1.295238
00:00:00.304	1.260806	1.302564	1.303297
00:00:00.305	1.260806	1.284982	1.303297
00:00:00.305	1.172894	1.277656	1.304029
00:00:00.306	1.210989	1.301832	1.304029
00:00:00.306	1.363370	1.290842	1.294505
00:00:00.306	1.496703	1.300366	1.307692
00:00:00.307	1.569963	1.317216	1.308425
00:00:00.307	1.541392	1.334066	1.308425
00:00:00.307	1.408791	1.308425	1.300366
00:00:00.308	1.263736	1.288645	1.295971
00:00:00.308	1.181685	1.314286	1.298168
00:00:00.308	1.172894	1.309158	1.312821
00:00:00.309	1.216117	1.311355	1.323810
00:00:00.309	1.252747	1.284982	1.299634
00:00:00.310	1.295238	1.312821	1.298168
00:00:00.310	1.330403	1.328938	1.307692
00:00:00.310	1.303297	1.354579	1.303297
00:00:00.311	1.347985	1.298901	1.308425
00:00:00.311	1.366300	1.239560	1.306960
00:00:00.311	1.369231	1.260073	1.312088
00:00:00.315	1.336996	1.378755	1.298901
00:00:00.315	1.307692	1.475458	1.287912
00:00:00.315	1.300366	1.370696	1.284982
00:00:00.315	1.314286	1.267399	1.298901
00:00:00.315	1.326007	1.257143	1.300366
00:00:00.315	1.319414	1.380952	1.298168
00:00:00.315	1.317949	1.642491	1.326007
00:00:00.315	1.254945	1.476923	1.295238
00:00:00.315	1.257143	1.236630	1.317949
00:00:00.347	1.280586	1.036630	1.306227
00:00:00.347	1.381685	1.078388	1.306960
00:00:00.347	1.435165	1.175824	1.311355
00:00:00.350	1.361905	1.176557	1.299634
00:00:00.350	1.271795	1.139194	1.298901
00:00:00.350	1.177289	1.150183	1.275458
00:00:00.350	1.183150	1.279853	1.271062
00:00:00.350	1.229304	1.441026	1.273993
00:00:00.350	1.334066	1.483516	1.286447
00:00:00.350	1.343590	1.444689	1.272527
00:00:00.350	1.312088	1.409524	1.290110
00:00:00.351	1.271062	1.371429	1.334066
00:00:00.351	1.272527	1.343590	1.363370
00:00:00.351	1.320147	1.318681	1.361172
00:00:00.353	1.360440	1.312821	1.358242
00:00:00.353	1.338462	1.376557	1.349451
00:00:00.353	1.322344	1.394139	1.334799
00:00:00.353	1.306227	1.338462	1.319414
00:00:00.353	1.339194	1.250549	1.312821
00:00:00.354	1.344322	1.167033	1.298168
00:00:00.354	1.320879	1.207326	1.296703
00:00:00.354	1.275458	1.243956	1.292308
00:00:00.355	1.273993	1.243956	1.289377
00:00:00.355	1.258608	1.252015	1.301832
00:00:00.355	1.230037	1.268864	1.295971
00:00:00.356	1.257143	1.294505	1.295971
00:00:00.356	1.370696	1.335531	1.293773
00:00:00.356	1.483516	1.351648	1.296703
00:00:00.357	1.480586	1.362637	1.290842
00:00:00.357	1.438828	1.353114	1.297436
00:00:00.357	1.369963	1.333333	1.271795
00:00:00.358	1.223443	1.301832	1.311355
00:00:00.358	1.187546	1.306960	1.320147
00:00:00.359	1.253480	1.329670	1.310623
00:00:00.359	1.402198	1.277656	1.304762
00:00:00.359	1.493773	1.241026	1.312821
00:00:00.360	1.414652	1.331868	1.304762
00:00:00.360	1.294505	1.522344	1.326007
00:00:00.360	1.161905	1.520879	1.393407
00:00:00.361	1.073993	1.380220	1.368498
00:00:00.361	1.101832	1.190476	1.268132
00:00:00.361	1.218315	1.223443	1.287912
00:00:00.362	1.304029	1.260073	1.263736
00:00:00.362	1.330403	1.202198	1.273260
00:00:00.362	1.327473	1.087179	1.270330
00:00:00.363	1.327473	1.075458	1.268132
00:00:00.363	1.322344	1.144322	1.284982
00:00:00.364	1.306227	1.150183	1.290842
00:00:00.364	1.335531	1.295971	1.305495
00:00:00.364	1.338462	1.469597	1.293040
00:00:00.396	1.326007	1.386813	1.300366
00:00:00.397	1.323810	1.284249	1.298901
00:00:00.397	1.353114	1.195604	1.317949
00:00:00.398	1.420513	1.202198	1.312821
00:00:00.398	1.386813	1.320879	1.309158
00:00:00.398	1.331868	1.344322	1.299634
00:00:00.399	1.283516	1.266667	1.276923
00:00:00.399	1.235897	1.273260	1.283516
00:00:00.399	1.250549	1.332601	1.285714
00:00:00.400	1.266667	1.344322	1.296703
00:00:00.400	1.294505	1.345055	1.300366
00:00:00.400	1.297436	1.328205	1.302564
00:00:00.401	1.329670	1.366300	1.315018
00:00:00.401	1.339927	1.419780	1.317949
00:00:00.401	1.345788	1.378022	1.320879
00:00:00.403	1.342857	1.336264	1.326740
00:00:00.403	1.312821	1.268864	1.319414
00:00:00.403	1.301832	1.337729	1.315018
00:00:00.403	1.310623	1.430769	1.328938
00:00:00.403	1.314286	1.439560	1.307692
00:00:00.404	1.326007	1.421245	1.322344
00:00:00.404	1.320879	1.360440	1.320147
00:00:00.404	1.311355	1.311355	1.311355
00:00:00.405	1.314286	1.299634	1.304029
00:00:00.405	1.304762	1.302564	1.300366
00:00:00.405	1.312821	1.317216	1.303297
00:00:00.406	1.308425	1.343590	1.302564
00:00:00.406	1.293040	1.353114	1.290110
00:00:00.406	1.306227	1.323077	1.299634
00:00:00.409	1.316484	1.298168	1.303297
00:00:00.409	1.300366	1.285714	1.309890
00:00:00.409	1.303297	1.266667	1.304762
00:00:00.409	1.317949	1.286447	1.312821
00:00:00.409	1.324542	1.339194	1.313553
00:00:00.410	1.305495	1.370696	1.313553
00:00:00.410	1.320879	1.350916	1.317949
00:00:00.410	1.299634	1.317949	1.308425
00:00:00.410	1.309158	1.317216	1.304762
00:00:00.410	1.293773	1.300366	1.300366
00:00:00.410	1.303297	1.316484	1.298901
00:00:00.411	1.305495	1.306960	1.287179
00:00:00.411	1.306960	1.291575	1.287179
00:00:00.411	1.325275	1.250549	1.290110
00:00:00.414	1.322344	1.210256	1.295971
00:00:00.414	1.303297	1.169231	1.288645
00:00:00.414	1.319414	1.164835	1.295238
00:00:00.414	1.325275	1.216850	1.287179
00:00:00.414	1.329670	1.290110	1.318681
00:00:00.414	1.302564	1.384615	1.304762
00:00:00.414	1.276923	1.456410	1.306227
00:00:00.446	1.289377	1.498168	1.317949
00:00:00.448	1.289377	1.422711	1.317216
00:00:00.448	1.299634	1.315018	1.320879
00:00:00.448	1.290110	1.263004	1.312088
00:00:00.448	1.300366	1.240293	1.304029
00:00:00.448	1.335531	1.264469	1.316484
00:00:00.448	1.316484	1.271795	1.294505
00:00:00.449	1.317949	1.275458	1.303297
00:00:00.449	1.312088	1.276190	1.295238
00:00:00.449	1.312088	1.284982	1.290842
00:00:00.450	1.304762	1.282784	1.297436
00:00:00.450	1.313553	1.286447	1.293773
00:00:00.450	1.315751	1.282051	1.300366
00:00:00.451	1.320147	1.282784	1.295971
00:00:00.451	1.300366	1.290110	1.302564
00:00:00.452	1.307692	1.299634	1.303297
00:00:00.452	1.309890	1.289377	1.304029
00:00:00.452	1.287179	1.274725	1.306227
00:00:00.453	1.301099	1.294505	1.311355
00:00:00.453	1.286447	1.299634	1.312088
00:00:00.453	1.309158	1.299634	1.323077
00:00:00.454	1.314286	1.301099	1.316484
00:00:00.455	1.309158	1.300366	1.309890
00:00:00.455	1.320879	1.300366	1.299634
00:00:00.455	1.308425	1.292308	1.279121
00:00:00.455	1.304029	1.306227	1.273993
00:00:00.455	1.309890	1.317216	1.284982
00:00:00.456	1.295971	1.320879	1.298901
00:00:00.456	1.273993	1.301099	1.297436
00:00:00.457	1.288645	1.300366	1.309890
00:00:00.457	1.355311	1.301099	1.312088
00:00:00.457	1.332601	1.288645	1.300366
00:00:00.458	1.361905	1.296703	1.310623
00:00:00.458	1.328205	1.300366	1.311355
00:00:00.458	1.289377	1.289377	1.315751
00:00:00.459	1.298901	1.293040	1.323077
00:00:00.459	1.246154	1.287912	1.322344
00:00:00.459	1.268132	1.293773	1.320147
00:00:00.460	1.287179	1.293773	1.300366
00:00:00.460	1.303297	1.296703	1.315751
00:00:00.460	1.306227	1.311355	1.314286
00:00:00.461	1.299634	1.312088	1.300366
00:00:00.461	1.264469	1.323810	1.298901
00:00:00.462	1.324542	1.330403	1.299634
00:00:00.462	1.423443	1.334066	1.283516
00:00:00.462	1.405861	1.336264	1.284982
00:00:00.463	1.390476	1.320147	1.265201
00:00:00.463	1.380952	1.321612	1.273260
00:00:00.463	1.244689	1.306227	1.276923
00:00:00.464	1.176557	1.300366	1.300366
00:00:00.496	1.213187	1.283516	1.336264
00:00:00.496	1.268864	1.287179	1.339194
00:00:00.497	1.347253	1.293773	1.320879
00:00:00.497	1.329670	1.293040	1.318681
00:00:00.497	1.304029	1.287179	1.308425
00:00:00.498	1.302564	1.309158	1.312088
00:00:00.498	1.304762	1.312088	1.306227
00:00:00.498	1.295238	1.306227	1.300366
00:00:00.499	1.312088	1.317216	1.294505
00:00:00.499	1.311355	1.320879	1.295971
00:00:00.499	1.318681	1.318681	1.292308
00:00:00.500	1.323810	1.282784	1.287912
00:00:00.500	1.328938	1.274725	1.296703
00:00:00.501	1.332601	1.279121	1.312821
00:00:00.501	1.303297	1.287912	1.304029
00:00:00.501	1.315018	1.313553	1.315751
00:00:00.502	1.305495	1.328205	1.306960
00:00:00.502	1.308425	1.328938	1.319414
00:00:00.502	1.301832	1.319414	1.315018
00:00:00.504	1.298901	1.304762	1.302564
00:00:00.504	1.320147	1.331868	1.307692
00:00:00.504	1.309158	1.298901	1.334066
00:00:00.504	1.309890	1.284249	1.304762
00:00:00.506	1.317216	1.269597	1.304762
00:00:00.506	1.305495	1.252015	1.281319
00:00:00.506	1.311355	1.283516	1.288645
00:00:00.506	1.310623	1.312821	1.288645
00:00:00.506	1.317216	1.342125	1.300366
00:00:00.506	1.314286	1.328938	1.290110
00:00:00.509	1.298901	1.333333	1.284982
00:00:00.509	1.282051	1.314286	1.286447
00:00:00.509	1.303297	1.293773	1.300366
00:00:00.509	1.317216	1.282784	1.309890
00:00:00.509	1.313553	1.282051	1.309158
00:00:00.509	1.309890	1.297436	1.320879
00:00:00.509	1.310623	1.302564	1.314286
00:00:00.509	1.321612	1.320879	1.315751
00:00:00.509	1.318681	1.312088	1.316484
00:00:00.509	1.310623	1.306227	1.306960
00:00:00.510	1.302564	1.317216	1.304762
00:00:00.510	1.316484	1.327473	1.298901
00:00:00.511	1.315751	1.319414	1.290842
00:00:00.511	1.317949	1.353114	1.305495
00:00:00.511	1.300366	1.353114	1.295238
00:00:00.512	1.286447	1.331136	1.293773
00:00:00.512	1.292308	1.322344	1.301832
00:00:00.512	1.315018	1.311355	1.304762
00:00:00.513	1.306227	1.319414	1.309158
00:00:00.513	1.315018	1.334066	1.309890
00:00:00.513	1.315751	1.279853	1.298168
00:00:00.546	1.321612	1.235897	1.310623
00:00:00.546	1.313553	1.210256	1.309158
00:00:00.546	1.323077	1.206593	1.317216
00:00:00.547	1.297436	1.251282	1.316484
00:00:00.547	1.285714	1.272527	1.289377
00:00:00.547	1.279853	1.273993	1.294505
00:00:00.548	1.293040	1.317216	1.298901
00:00:00.548	1.304029	1.349451	1.305495
00:00:00.548	1.304762	1.361172	1.310623
00:00:00.549	1.312821	1.339927	1.302564
00:00:00.549	1.317949	1.295971	1.298901
00:00:00.550	1.330403	1.282784	1.300366
00:00:00.550	1.323810	1.312821	1.295971
00:00:00.550	1.326007	1.310623	1.302564
00:00:00.551	1.316484	1.306960	1.306227
00:00:00.551	1.309158	1.290110	1.299634
00:00:00.551	1.323077	1.306227	1.313553
00:00:00.552	1.315018	1.317216	1.308425
00:00:00.552	1.304762	1.315018	1.310623
00:00:00.552	1.316484	1.320879	1.316484
00:00:00.553	1.316484	1.321612	1.309158
00:00:00.553	1.313553	1.328938	1.302564
00:00:00.553	1.297436	1.336264	1.295238
00:00:00.554	1.286447	1.290842	1.290110
00:00:00.554	1.312821	1.282051	1.300366
00:00:00.555	1.300366	1.289377	1.298168
00:00:00.555	1.306227	1.323077	1.295971
00:00:00.555	1.319414	1.334066	1.287179
00:00:00.556	1.326007	1.344322	1.298901
00:00:00.556	1.326007	1.327473	1.303297
00:00:00.556	1.306960	1.290110	1.302564
00:00:00.557	1.290110	1.317216	1.304029
00:00:00.557	1.294505	1.320879	1.316484
00:00:00.557	1.294505	1.297436	1.312821
00:00:00.558	1.323077	1.277656	1.307692
00:00:00.558	1.336996	1.269597	1.306960
00:00:00.559	1.359707	1.289377	1.312088
00:00:00.559	1.336264	1.260806	1.302564
00:00:00.559	1.286447	1.269597	1.302564
00:00:00.560	1.263736	1.298168	1.300366
00:00:00.560	1.249817	1.311355	1.297436
00:00:00.560	1.281319	1.334066	1.305495
00:00:00.561	1.325275	1.332601	1.300366
00:00:00.561	1.331868	1.307692	1.298168
00:00:00.561	1.344322	1.303297	1.304029
00:00:00.562	1.344322	1.323077	1.303297
00:00:00.562	1.293040	1.333333	1.299634
00:00:00.562	1.275458	1.367033	1.308425
00:00:00.563	1.300366	1.328205	1.299634
00:00:00.563	1.362637	1.304762	1.302564
