timestamp	ch1	ch2	ch3
00:00:00.000	1.313553	1.403663	1.303297
00:00:00.001	1.304029	1.340659	1.301832
00:00:00.001	1.315751	1.263736	1.306227
00:00:00.002	1.312088	1.215385	1.305495
00:00:00.002	1.307692	1.240293	1.300366
00:00:00.002	1.313553	1.298168	1.300366
00:00:00.003	1.312821	1.336996	1.306227
00:00:00.003	1.307692	1.358242	1.302564
00:00:00.003	1.313553	1.319414	1.307692
00:00:00.005	1.312088	1.298168	1.300366
00:00:00.005	1.312088	1.284249	1.299634
00:00:00.005	1.315751	1.265201	1.305495
00:00:00.005	1.306960	1.266667	1.304029
00:00:00.005	1.308425	1.300366	1.311355
00:00:00.005	1.310623	1.343590	1.304762
00:00:00.006	1.322344	1.356777	1.309890
00:00:00.006	1.317949	1.310623	1.310623
00:00:00.009	1.293040	1.282051	1.303297
00:00:00.009	1.306227	1.286447	1.306227
00:00:00.009	1.316484	1.301099	1.307692
00:00:00.009	1.319414	1.275458	1.306227
00:00:00.009	1.317216	1.294505	1.305495
00:00:00.009	1.309158	1.301099	1.295238
00:00:00.009	1.312088	1.315751	1.311355
00:00:00.009	1.312821	1.337729	1.307692
00:00:00.041	1.300366	1.342857	1.298901
00:00:00.044	1.323810	1.330403	1.303297
00:00:00.044	1.317216	1.312088	1.306227
00:00:00.044	1.316484	1.293040	1.307692
00:00:00.044	1.301099	1.285714	1.306227
00:00:00.044	1.305495	1.279121	1.306227
00:00:00.044	1.295971	1.298901	1.302564
00:00:00.044	1.309890	1.331136	1.310623
00:00:00.044	1.314286	1.340659	1.304029
00:00:00.044	1.312088	1.330403	1.308425
00:00:00.046	1.316484	1.314286	1.302564
00:00:00.046	1.317949	1.312088	1.304762
00:00:00.046	1.317949	1.312088	1.305495
00:00:00.046	1.312088	1.305495	1.306227
00:00:00.046	1.298168	1.296703	1.298168
00:00:00.047	1.323810	1.304029	1.304762
00:00:00.047	1.312088	1.295238	1.297436
00:00:00.047	1.312088	1.287912	1.306227
00:00:00.048	1.316484	1.289377	1.311355
00:00:00.048	1.306227	1.299634	1.304029
00:00:00.048	1.301832	1.307692	1.306227
00:00:00.049	1.308425	1.320147	1.308425
00:00:00.049	1.309158	1.317949	1.298168
00:00:00.049	1.304762	1.311355	1.305495
00:00:00.050	1.298901	1.306227	1.306960
00:00:00.050	1.311355	1.290110	1.295238
00:00:00.051	1.315018	1.299634	1.312088
00:00:00.051	1.322344	1.303297	1.309158
00:00:00.051	1.309158	1.297436	1.300366
00:00:00.052	1.311355	1.315018	1.304762
00:00:00.052	1.295971	1.319414	1.296703
00:00:00.052	1.320879	1.316484	1.305495
00:00:00.053	1.339194	1.309890	1.300366
00:00:00.053	1.328205	1.304029	1.301832
00:00:00.053	1.317216	1.301832	1.309890
00:00:00.054	1.308425	1.303297	1.304029
00:00:00.054	1.306227	1.312088	1.300366
00:00:00.054	1.310623	1.324542	1.311355
00:00:00.055	1.304762	1.332601	1.304029
00:00:00.055	1.307692	1.342125	1.308425
00:00:00.056	1.309890	1.331136	1.296703
00:00:00.056	1.308425	1.332601	1.307692
00:00:00.056	1.295238	1.293773	1.312821
00:00:00.057	1.296703	1.276923	1.300366
00:00:00.057	1.309890	1.267399	1.300366
00:00:00.057	1.333333	1.252015	1.305495
00:00:00.058	1.323810	1.257143	1.307692
00:00:00.058	1.326007	1.342125	1.291575
00:00:00.058	1.323810	1.359707	1.309158
00:00:00.059	1.306960	1.318681	1.296703
00:00:00.091	1.312088	1.261538	1.304762
00:00:00.091	1.312821	1.232967	1.299634
00:00:00.092	1.315751	1.280586	1.300366
00:00:00.092	1.303297	1.339194	1.306227
00:00:00.092	1.311355	1.356044	1.306227
00:00:00.093	1.299634	1.352381	1.293040
00:00:00.093	1.308425	1.311355	1.302564
00:00:00.093	1.306227	1.281319	1.300366
00:00:00.094	1.307692	1.295971	1.304762
00:00:00.095	1.308425	1.318681	1.308425
00:00:00.095	1.314286	1.314286	1.300366
00:00:00.095	1.309890	1.329670	1.301832
00:00:00.095	1.305495	1.355311	1.306960
00:00:00.096	1.317949	1.309890	1.296703
00:00:00.096	1.321612	1.253480	1.306227
00:00:00.096	1.317949	1.220513	1.313553
00:00:00.097	1.318681	1.369231	1.312088
00:00:00.097	1.312088	1.467399	1.308425
00:00:00.097	1.304029	1.413187	1.308425
00:00:00.098	1.306227	1.276923	1.309158
00:00:00.098	1.318681	1.224908	1.300366
00:00:00.098	1.296703	1.228571	1.303297
00:00:00.099	1.312088	1.216850	1.308425
00:00:00.099	1.293040	1.197070	1.293773
00:00:00.100	1.300366	1.312821	1.293773
00:00:00.100	1.315018	1.371429	1.307692
00:00:00.100	1.316484	1.346520	1.310623
00:00:00.101	1.319414	1.257875	1.309158
00:00:00.101	1.303297	1.227839	1.306227
00:00:00.101	1.319414	1.246154	1.303297
00:00:00.102	1.323810	1.259341	1.311355
00:00:00.102	1.320147	1.293773	1.306227
00:00:00.102	1.315018	1.355311	1.306227
00:00:00.103	1.298901	1.353846	1.294505
00:00:00.103	1.318681	1.357509	1.305495
00:00:00.103	1.321612	1.358974	1.312821
00:00:00.104	1.317949	1.339927	1.297436
00:00:00.104	1.309158	1.304029	1.302564
00:00:00.106	1.313553	1.288645	1.283516
00:00:00.106	1.315018	1.314286	1.306960
00:00:00.106	1.304029	1.320147	1.307692
00:00:00.106	1.293773	1.325275	1.309158
00:00:00.106	1.295238	1.314286	1.300366
00:00:00.106	1.299634	1.307692	1.309890
00:00:00.108	1.303297	1.308425	1.310623
00:00:00.108	1.312088	1.297436	1.309158
00:00:00.108	1.326007	1.284982	1.305495
00:00:00.108	1.326740	1.316484	1.307692
00:00:00.108	1.329670	1.357509	1.306960
00:00:00.108	1.321612	1.335531	1.304029
00:00:00.141	1.317949	1.298901	1.302564
00:00:00.141	1.326007	1.304029	1.306960
00:00:00.141	1.315018	1.317949	1.302564
00:00:00.142	1.298901	1.368498	1.293773
00:00:00.142	1.305495	1.380220	1.303297
00:00:00.142	1.312088	1.322344	1.303297
00:00:00.143	1.301099	1.241758	1.296703
00:00:00.143	1.309890	1.232234	1.306960
00:00:00.143	1.304029	1.267399	1.314286
00:00:00.144	1.309890	1.310623	1.317216
00:00:00.144	1.313553	1.320147	1.306227
00:00:00.145	1.324542	1.323077	1.302564
00:00:00.145	1.326740	1.316484	1.307692
00:00:00.145	1.317949	1.300366	1.312088
00:00:00.146	1.323810	1.292308	1.311355
00:00:00.146	1.316484	1.299634	1.304762
00:00:00.147	1.321612	1.311355	1.300366
00:00:00.147	1.308425	1.293040	1.287912
00:00:00.147	1.317216	1.310623	1.303297
00:00:00.147	1.310623	1.300366	1.304029
00:00:00.148	1.298168	1.273993	1.297436
00:00:00.148	1.309890	1.290110	1.300366
00:00:00.149	1.304029	1.305495	1.309158
00:00:00.149	1.309890	1.297436	1.304029
00:00:00.149	1.306227	1.316484	1.309158
00:00:00.150	1.300366	1.340659	1.313553
00:00:00.150	1.309158	1.335531	1.308425
00:00:00.150	1.315018	1.338462	1.308425
00:00:00.151	1.301832	1.304029	1.298901
00:00:00.151	1.301832	1.295971	1.304762
00:00:00.151	1.307692	1.298168	1.308425
00:00:00.152	1.317949	1.307692	1.314286
00:00:00.152	1.297436	1.312821	1.305495
00:00:00.152	1.307692	1.334799	1.310623
00:00:00.153	1.309158	1.320147	1.297436
00:00:00.153	1.315751	1.321612	1.305495
00:00:00.154	1.306960	1.304029	1.303297
00:00:00.154	1.298901	1.276923	1.295971
00:00:00.154	1.312088	1.282051	1.313553
00:00:00.155	1.308425	1.276190	1.304029
00:00:00.155	1.305495	1.263736	1.297436
00:00:00.155	1.317949	1.310623	1.309158
00:00:00.156	1.314286	1.331868	1.304762
00:00:00.156	1.307692	1.354579	1.303297
00:00:00.156	1.323810	1.336264	1.308425
00:00:00.157	1.323077	1.295238	1.304029
00:00:00.157	1.314286	1.278388	1.309890
00:00:00.157	1.323810	1.287912	1.306227
00:00:00.158	1.304029	1.287179	1.295971
00:00:00.158	1.320879	1.300366	1.309890
00:00:00.190	1.323810	1.323810	1.300366
00:00:00.191	1.300366	1.323077	1.300366
00:00:00.191	1.306227	1.316484	1.306227
00:00:00.191	1.310623	1.291575	1.290842
00:00:00.192	1.306960	1.301832	1.292308
00:00:00.192	1.304762	1.331868	1.306227
00:00:00.192	1.290110	1.311355	1.294505
00:00:00.193	1.300366	1.326740	1.306227
00:00:00.193	1.306960	1.308425	1.308425
00:00:00.194	1.306227	1.287912	1.306227
00:00:00.194	1.309158	1.292308	1.308425
00:00:00.194	1.301832	1.297436	1.302564
00:00:00.195	1.304029	1.306227	1.305495
00:00:00.195	1.312088	1.309890	1.310623
00:00:00.195	1.312088	1.307692	1.309158
00:00:00.196	1.319414	1.293773	1.315751
00:00:00.196	1.315751	1.301099	1.308425
00:00:00.196	1.315018	1.295238	1.308425
00:00:00.197	1.318681	1.282051	1.312088
00:00:00.197	1.321612	1.276923	1.300366
00:00:00.198	1.304029	1.281319	1.293040
00:00:00.198	1.304762	1.346520	1.307692
00:00:00.198	1.311355	1.322344	1.288645
00:00:00.199	1.312088	1.325275	1.299634
00:00:00.199	1.310623	1.342857	1.312821
00:00:00.199	1.311355	1.351648	1.307692
00:00:00.201	1.300366	1.326007	1.310623
00:00:00.201	1.312821	1.309890	1.317216
00:00:00.201	1.314286	1.269597	1.306960
00:00:00.201	1.315018	1.280586	1.304762
00:00:00.201	1.314286	1.289377	1.309890
00:00:00.201	1.307692	1.298168	1.290110
00:00:00.202	1.289377	1.293773	1.298901
00:00:00.202	1.317949	1.290842	1.303297
00:00:00.204	1.325275	1.299634	1.311355
00:00:00.204	1.309158	1.327473	1.306960
00:00:00.204	1.315751	1.334799	1.312088
00:00:00.204	1.302564	1.293040	1.297436
00:00:00.204	1.306227	1.264469	1.294505
00:00:00.204	1.312821	1.266667	1.309158
00:00:00.205	1.286447	1.273993	1.294505
00:00:00.205	1.310623	1.305495	1.307692
00:00:00.205	1.309890	1.331136	1.305495
00:00:00.206	1.312088	1.345788	1.307692
00:00:00.206	1.309158	1.362637	1.303297
00:00:00.206	1.318681	1.353846	1.303297
00:00:00.207	1.312088	1.320147	1.304029
00:00:00.207	1.304762	1.290110	1.303297
00:00:00.208	1.320147	1.300366	1.308425
00:00:00.208	1.312088	1.269597	1.313553
00:00:00.240	1.313553	1.255678	1.306227
00:00:00.240	1.317216	1.287179	1.308425
00:00:00.241	1.315751	1.300366	1.306960
00:00:00.241	1.293773	1.350183	1.306960
00:00:00.242	1.307692	1.351648	1.309890
00:00:00.242	1.334066	1.335531	1.306960
00:00:00.242	1.308425	1.307692	1.297436
00:00:00.243	1.297436	1.269597	1.306227
00:00:00.243	1.307692	1.249084	1.296703
00:00:00.243	1.299634	1.287912	1.290110
00:00:00.244	1.310623	1.312821	1.302564
00:00:00.244	1.312088	1.334066	1.293773
00:00:00.244	1.301832	1.288645	1.283516
00:00:00.245	1.308425	1.273260	1.293773
00:00:00.245	1.314286	1.267399	1.311355
00:00:00.245	1.320879	1.276190	1.309890
00:00:00.246	1.317949	1.278388	1.315018
00:00:00.246	1.312821	1.266667	1.296703
00:00:00.247	1.316484	1.294505	1.318681
00:00:00.247	1.308425	1.307692	1.312821
00:00:00.247	1.309158	1.312088	1.308425
00:00:00.248	1.317949	1.348718	1.310623
00:00:00.248	1.295971	1.342857	1.307692
00:00:00.248	1.303297	1.341392	1.299634
00:00:00.249	1.300366	1.331136	1.298168
00:00:00.249	1.303297	1.326007	1.295971
00:00:00.249	1.315018	1.306227	1.305495
00:00:00.250	1.312088	1.290110	1.304029
00:00:00.250	1.301832	1.269597	1.292308
00:00:00.250	1.312088	1.292308	1.309158
00:00:00.252	1.316484	1.310623	1.312088
00:00:00.252	1.322344	1.322344	1.316484
00:00:00.252	1.315751	1.318681	1.313553
00:00:00.252	1.317216	1.326007	1.306960
00:00:00.252	1.319414	1.334799	1.309158
00:00:00.253	1.308425	1.321612	1.293773
00:00:00.253	1.314286	1.333333	1.301832
00:00:00.253	1.312088	1.322344	1.299634
00:00:00.254	1.314286	1.311355	1.305495
00:00:00.254	1.301099	1.284982	1.295238
00:00:00.254	1.315018	1.301832	1.309158
00:00:00.255	1.314286	1.313553	1.315751
00:00:00.255	1.310623	1.328938	1.307692
00:00:00.255	1.312088	1.336996	1.317216
00:00:00.256	1.306227	1.309158	1.300366
00:00:00.256	1.307692	1.294505	1.306960
00:00:00.257	1.307692	1.282784	1.304029
00:00:00.257	1.312821	1.268132	1.306227
00:00:00.257	1.322344	1.269597	1.282784
00:00:00.258	1.313553	1.271795	1.284982
00:00:00.290	1.316484	1.265201	1.262271
00:00:00.290	1.317949	1.317949	1.276923
00:00:00.292	1.306960	1.347253	1.279121
00:00:00.292	1.319414	1.364835	1.300366
00:00:00.292	1.309890	1.354579	1.319414
00:00:00.292	1.304762	1.323810	1.333333
00:00:00.292	1.300366	1.295971	1.339194
00:00:00.292	1.291575	1.276923	1.335531
00:00:00.295	1.294505	1.275458	1.332601
00:00:00.295	1.304762	1.285714	1.330403
00:00:00.295	1.296703	1.292308	1.323810
00:00:00.295	1.304762	1.309890	1.306960
00:00:00.295	1.311355	1.317949	1.295971
00:00:00.295	1.312088	1.307692	1.294505
00:00:00.296	1.320879	1.306227	1.295971
00:00:00.296	1.307692	1.291575	1.290842
00:00:00.296	1.306227	1.339194	1.304029
00:00:00.296	1.311355	1.320147	1.298901
00:00:00.296	1.323810	1.329670	1.299634
00:00:00.299	1.320879	1.408059	1.309158
00:00:00.299	1.317949	1.479121	1.303297
00:00:00.299	1.295971	1.539927	1.312088
00:00:00.299	1.299634	1.543590	1.317216
00:00:00.299	1.321612	1.632234	1.321612
00:00:00.299	1.306227	1.493040	1.299634
00:00:00.299	1.312088	1.158242	1.303297
00:00:00.299	1.320879	0.915018	1.287179
00:00:00.299	1.318681	0.761905	1.282784
00:00:00.300	1.319414	0.715018	1.278388
00:00:00.300	1.311355	0.949451	1.269597
00:00:00.301	1.305495	1.174359	1.287912
00:00:00.301	1.293040	1.382418	1.300366
00:00:00.301	1.295971	1.388278	1.304029
00:00:00.302	1.308425	1.364835	1.318681
00:00:00.302	1.316484	1.372161	1.312088
00:00:00.302	1.306227	1.332601	1.305495
00:00:00.303	1.317949	1.418315	1.322344
00:00:00.304	1.296703	1.457875	1.307692
00:00:00.304	1.301832	1.450549	1.323810
00:00:00.304	1.291575	1.360440	1.320879
00:00:00.304	1.316484	1.339927	1.317216
00:00:00.304	1.327473	1.406593	1.309890
00:00:00.305	1.324542	1.547253	1.326007
00:00:00.305	1.335531	1.745788	1.332601
00:00:00.306	1.328938	1.715751	1.315751
00:00:00.306	1.323810	1.515751	1.323810
00:00:00.306	1.320879	1.248352	1.299634
00:00:00.307	1.320879	0.982418	1.282784
00:00:00.307	1.319414	1.074725	1.295238
00:00:00.307	1.322344	1.108425	1.287179
00:00:00.340	1.319414	1.081319	1.280586
00:00:00.340	1.317949	1.102564	1.283516
00:00:00.340	1.315751	1.103297	1.295971
00:00:00.341	1.308425	1.093040	1.293040
00:00:00.341	1.284249	1.060073	1.279121
00:00:00.341	1.270330	1.050549	1.282784
00:00:00.342	1.272527	1.237363	1.284249
00:00:00.342	1.268864	1.411722	1.296703
00:00:00.342	1.304762	1.463736	1.316484
00:00:00.343	1.313553	1.421245	1.313553
00:00:00.343	1.300366	1.405128	1.320879
00:00:00.343	1.313553	1.450549	1.326740
00:00:00.344	1.320879	1.458608	1.305495
00:00:00.344	1.317949	1.438828	1.295971
00:00:00.345	1.332601	1.378755	1.290110
00:00:00.345	1.346520	1.356044	1.309890
00:00:00.345	1.359707	1.351648	1.321612
00:00:00.346	1.356044	1.345788	1.328205
00:00:00.346	1.353846	1.383883	1.344322
00:00:00.346	1.331868	1.441026	1.331868
00:00:00.347	1.298901	1.354579	1.321612
00:00:00.347	1.280586	1.520879	1.333333
00:00:00.347	1.273993	1.750183	1.326007
00:00:00.348	1.276923	1.784615	1.299634
00:00:00.348	1.292308	1.614652	1.310623
00:00:00.348	1.289377	1.333333	1.288645
00:00:00.349	1.282051	1.057875	1.276190
00:00:00.349	1.315018	0.738462	1.279853
00:00:00.350	1.318681	0.538462	1.257875
00:00:00.350	1.322344	0.599267	1.256410
00:00:00.350	1.331868	0.910623	1.296703
00:00:00.351	1.317216	1.148718	1.312088
00:00:00.351	1.299634	1.334799	1.322344
00:00:00.351	1.296703	1.460073	1.317949
00:00:00.352	1.288645	1.590476	1.336264
00:00:00.352	1.295238	1.493773	1.327473
00:00:00.352	1.306960	1.358974	1.330403
00:00:00.353	1.311355	1.210989	1.327473
00:00:00.353	1.331868	1.209524	1.333333
00:00:00.353	1.331136	1.238095	1.331136
00:00:00.354	1.321612	1.296703	1.325275
00:00:00.354	1.346520	1.495971	1.311355
00:00:00.354	1.342125	1.690842	1.313553
00:00:00.355	1.334066	1.641026	1.303297
00:00:00.356	1.314286	1.530403	1.298168
00:00:00.356	1.297436	1.435897	1.281319
00:00:00.356	1.287912	1.350916	1.275458
00:00:00.356	1.298168	1.238095	1.284249
00:00:00.357	1.326740	1.226374	1.300366
00:00:00.357	1.304762	1.383883	1.304029
00:00:00.389	1.298901	1.343590	1.313553
00:00:00.390	1.309890	1.261538	1.323077
00:00:00.390	1.308425	1.323810	1.326007
00:00:00.390	1.317216	1.246154	1.315018
00:00:00.391	1.330403	1.247619	1.302564
00:00:00.391	1.333333	1.291575	1.304029
00:00:00.391	1.320879	1.183883	1.303297
00:00:00.393	1.319414	1.091575	1.295238
00:00:00.393	1.303297	1.120879	1.299634
00:00:00.393	1.291575	1.172161	1.306960
00:00:00.394	1.300366	1.185348	1.303297
00:00:00.394	1.317216	1.233700	1.309890
00:00:00.394	1.321612	1.293773	1.304029
00:00:00.394	1.317216	1.419048	1.300366
00:00:00.394	1.321612	1.406593	1.288645
00:00:00.397	1.331136	1.391941	1.295971
00:00:00.397	1.326007	1.404396	1.305495
00:00:00.397	1.307692	1.459341	1.299634
00:00:00.397	1.282051	1.473260	1.298168
00:00:00.397	1.289377	1.495971	1.321612
00:00:00.397	1.301099	1.397802	1.323077
00:00:00.397	1.294505	1.197802	1.330403
00:00:00.397	1.281319	1.157509	1.323810
00:00:00.397	1.276923	1.202930	1.296703
00:00:00.398	1.283516	1.271062	1.290110
00:00:00.398	1.289377	1.304762	1.298168
00:00:00.399	1.304762	1.318681	1.293773
00:00:00.399	1.325275	1.397070	1.305495
00:00:00.399	1.318681	1.477656	1.306227
00:00:00.400	1.301832	1.482051	1.301832
00:00:00.400	1.301832	1.388278	1.298168
00:00:00.400	1.309890	1.371429	1.290110
00:00:00.401	1.300366	1.331868	1.288645
00:00:00.401	1.323810	1.246886	1.280586
00:00:00.401	1.320879	1.105495	1.261538
00:00:00.402	1.345788	1.146520	1.276923
00:00:00.402	1.339194	1.109890	1.289377
00:00:00.402	1.323810	1.043223	1.305495
00:00:00.403	1.323810	1.195604	1.327473
00:00:00.403	1.321612	1.300366	1.320147
00:00:00.404	1.326740	1.397070	1.343590
00:00:00.404	1.328938	1.503297	1.339927
00:00:00.404	1.323810	1.481319	1.309158
00:00:00.405	1.314286	1.346520	1.305495
00:00:00.405	1.309890	1.292308	1.309890
00:00:00.405	1.305495	1.224908	1.296703
00:00:00.406	1.301832	1.235165	1.300366
00:00:00.406	1.294505	1.288645	1.299634
00:00:00.406	1.305495	1.426374	1.323810
00:00:00.407	1.304762	1.423443	1.333333
00:00:00.439	1.295971	1.409524	1.328205
00:00:00.440	1.323810	1.410256	1.339927
00:00:00.440	1.342857	1.377289	1.323077
00:00:00.440	1.355311	1.224176	1.292308
00:00:00.440	1.341392	1.117216	1.282784
00:00:00.441	1.311355	1.109158	1.284982
00:00:00.441	1.300366	1.221978	1.276190
00:00:00.441	1.286447	1.264469	1.273260
00:00:00.442	1.279853	1.304029	1.290842
00:00:00.442	1.279121	1.357509	1.300366
00:00:00.443	1.279121	1.337729	1.298901
00:00:00.443	1.293773	1.272527	1.312088
00:00:00.443	1.289377	1.249817	1.306960
00:00:00.444	1.297436	1.282784	1.298168
00:00:00.444	1.314286	1.276923	1.295238
00:00:00.444	1.315751	1.350183	1.287912
00:00:00.445	1.336264	1.404396	1.299634
00:00:00.445	1.340659	1.382418	1.312821
00:00:00.445	1.317949	1.318681	1.314286
00:00:00.446	1.317216	1.336264	1.311355
00:00:00.446	1.304029	1.413187	1.311355
00:00:00.446	1.304762	1.503297	1.327473
00:00:00.447	1.320879	1.381685	1.299634
00:00:00.447	1.317949	1.257875	1.299634
00:00:00.448	1.326740	1.174359	1.299634
00:00:00.448	1.322344	1.042491	1.292308
00:00:00.448	1.318681	1.199267	1.279121
00:00:00.449	1.308425	1.493040	1.296703
00:00:00.449	1.314286	1.621245	1.311355
00:00:00.449	1.304029	1.547253	1.334066
00:00:00.450	1.309158	1.353846	1.320879
00:00:00.450	1.323810	1.202930	1.329670
00:00:00.450	1.311355	1.190476	1.333333
00:00:00.451	1.310623	1.162637	1.323077
00:00:00.451	1.309890	1.332601	1.309158
00:00:00.451	1.321612	1.698901	1.325275
00:00:00.452	1.307692	1.701099	1.308425
00:00:00.452	1.305495	1.339194	1.299634
00:00:00.453	1.295238	1.018315	1.285714
00:00:00.453	1.293773	0.906960	1.275458
00:00:00.453	1.284982	0.678388	1.266667
00:00:00.454	1.286447	0.857875	1.276923
00:00:00.454	1.306227	1.152381	1.298168
00:00:00.454	1.322344	1.263004	1.313553
00:00:00.455	1.347253	1.273993	1.318681
00:00:00.455	1.345788	1.306227	1.318681
00:00:00.455	1.336996	1.439560	1.312821
00:00:00.458	1.338462	1.682051	1.326007
00:00:00.458	1.328938	1.746520	1.336264
00:00:00.458	1.314286	1.635165	1.331136
00:00:00.491	1.331136	1.494505	1.312821
00:00:00.491	1.336996	1.342125	1.310623
00:00:00.491	1.330403	1.249084	1.298901
00:00:00.491	1.304762	1.293773	1.304029
00:00:00.491	1.279853	1.396337	1.307692
00:00:00.491	1.274725	1.356044	1.316484
00:00:00.491	1.259341	1.254945	1.306960
00:00:00.491	1.266667	1.132601	1.301832
00:00:00.494	1.270330	1.028571	1.294505
00:00:00.494	1.273993	1.052015	1.290842
00:00:00.494	1.287912	1.189744	1.315751
00:00:00.494	1.309158	1.323077	1.300366
00:00:00.494	1.321612	1.394139	1.311355
00:00:00.494	1.337729	1.377289	1.326007
00:00:00.494	1.326007	1.387546	1.308425
00:00:00.494	1.325275	1.446886	1.306960
00:00:00.494	1.335531	1.355311	1.297436
00:00:00.495	1.341392	1.271062	1.306227
00:00:00.495	1.334799	1.232967	1.312821
00:00:00.495	1.321612	1.260073	1.307692
00:00:00.496	1.323077	1.260806	1.298168
00:00:00.496	1.324542	1.282051	1.290842
00:00:00.497	1.316484	1.339927	1.292308
00:00:00.497	1.310623	1.368498	1.297436
00:00:00.497	1.305495	1.386813	1.311355
00:00:00.498	1.284249	1.361905	1.298168
00:00:00.498	1.293040	1.357509	1.294505
00:00:00.498	1.305495	1.336264	1.299634
00:00:00.499	1.312821	1.324542	1.295238
00:00:00.499	1.326740	1.365568	1.306227
00:00:00.499	1.306227	1.411722	1.314286
00:00:00.500	1.318681	1.482784	1.336264
00:00:00.500	1.320147	1.457143	1.338462
00:00:00.500	1.313553	1.416117	1.347253
00:00:00.501	1.312088	1.386081	1.323810
00:00:00.501	1.316484	1.317949	1.319414
00:00:00.502	1.331868	1.224908	1.304762
00:00:00.502	1.340659	1.139194	1.279853
00:00:00.502	1.343590	1.009524	1.284982
00:00:00.503	1.336264	0.991941	1.295238
00:00:00.503	1.296703	1.041758	1.276923
00:00:00.503	1.294505	1.173626	1.285714
00:00:00.504	1.299634	1.339927	1.300366
00:00:00.504	1.294505	1.383150	1.305495
00:00:00.504	1.287179	1.353846	1.314286
00:00:00.505	1.282051	1.329670	1.303297
00:00:00.505	1.267399	1.326740	1.300366
00:00:00.505	1.284982	1.383150	1.295971
00:00:00.506	1.296703	1.408791	1.288645
00:00:00.506	1.320147	1.421245	1.309158
00:00:00.538	1.332601	1.388278	1.313553
00:00:00.539	1.333333	1.364835	1.315018
00:00:00.539	1.333333	1.343590	1.317949
00:00:00.539	1.334799	1.294505	1.313553
00:00:00.540	1.316484	1.236630	1.306960
00:00:00.540	1.323810	1.291575	1.312088
00:00:00.541	1.309158	1.380952	1.290110
00:00:00.541	1.306227	1.464469	1.293773
00:00:00.541	1.305495	1.550183	1.313553
00:00:00.542	1.292308	1.466667	1.315018
00:00:00.542	1.315018	1.238828	1.302564
00:00:00.542	1.325275	1.139194	1.303297
00:00:00.543	1.315751	1.037363	1.301832
00:00:00.543	1.295971	0.994872	1.294505
00:00:00.543	1.305495	1.074725	1.297436
00:00:00.544	1.326007	1.175824	1.304762
00:00:00.544	1.335531	1.293773	1.317216
00:00:00.544	1.326740	1.320147	1.309890
00:00:00.545	1.313553	1.376557	1.304029
00:00:00.545	1.314286	1.391209	1.305495
00:00:00.546	1.320147	1.394139	1.310623
00:00:00.546	1.327473	1.394872	1.300366
00:00:00.546	1.312821	1.384615	1.309890
00:00:00.547	1.289377	1.520879	1.317216
00:00:00.547	1.286447	1.591941	1.322344
00:00:00.547	1.280586	1.512088	1.312821
00:00:00.548	1.282784	1.382418	1.303297
00:00:00.548	1.298901	1.404396	1.300366
00:00:00.548	1.311355	1.239560	1.287912
00:00:00.549	1.306960	1.096703	1.278388
00:00:00.549	1.328938	1.133333	1.292308
00:00:00.549	1.326007	1.148718	1.293773
00:00:00.553	1.320879	1.128205	1.303297
00:00:00.553	1.326007	1.281319	1.321612
00:00:00.553	1.312821	1.218315	1.335531
00:00:00.553	1.298901	1.164835	1.328938
00:00:00.553	1.311355	1.163370	1.328205
00:00:00.553	1.295971	1.272527	1.327473
00:00:00.553	1.295971	1.386813	1.311355
00:00:00.553	1.317216	1.510623	1.306227
00:00:00.553	1.328205	1.520879	1.289377
00:00:00.553	1.324542	1.586813	1.304029
00:00:00.553	1.316484	1.455678	1.296703
00:00:00.556	1.328938	1.252015	1.304029
00:00:00.556	1.320879	1.152381	1.297436
00:00:00.556	1.309890	1.132601	1.291575
00:00:00.556	1.297436	1.123077	1.284982
00:00:00.556	1.312821	1.186813	1.297436
00:00:00.556	1.327473	1.251282	1.306227
00:00:00.556	1.328205	1.262271	1.317216
00:00:00.589	1.308425	1.290842	1.314286
00:00:00.589	1.306960	1.357509	1.326740
00:00:00.589	1.311355	1.415385	1.315751
00:00:00.589	1.288645	1.405861	1.290842
00:00:00.590	1.293040	1.362637	1.298168
00:00:00.590	1.297436	1.297436	1.312821
00:00:00.590	1.293040	1.279853	1.304762
00:00:00.591	1.302564	1.401465	1.312821
00:00:00.591	1.299634	1.416117	1.312821
00:00:00.591	1.295238	1.394139	1.302564
00:00:00.592	1.283516	1.312821	1.287912
00:00:00.592	1.287179	1.238095	1.295238
00:00:00.592	1.306227	1.176557	1.298168
00:00:00.593	1.314286	1.298901	1.303297
00:00:00.593	1.304029	1.404396	1.295238
00:00:00.593	1.315018	1.448352	1.301832
00:00:00.594	1.316484	1.405128	1.311355
00:00:00.594	1.331136	1.301099	1.304029
00:00:00.595	1.353114	1.194139	1.286447
00:00:00.595	1.339194	1.199267	1.280586
00:00:00.595	1.323810	1.342125	1.309158
00:00:00.596	1.317216	1.375824	1.312821
00:00:00.597	1.300366	1.304762	1.320879
00:00:00.597	1.295971	1.230769	1.304762
00:00:00.597	1.299634	1.147985	1.288645
00:00:00.597	1.294505	1.288645	1.284982
00:00:00.597	1.310623	1.386813	1.292308
00:00:00.598	1.309890	1.405861	1.293773
00:00:00.598	1.297436	1.311355	1.312821
00:00:00.598	1.298901	1.230037	1.312821
00:00:00.599	1.322344	1.211722	1.314286
00:00:00.599	1.322344	1.167033	1.314286
00:00:00.600	1.329670	1.172161	1.309890
00:00:00.600	1.338462	1.320879	1.319414
00:00:00.600	1.322344	1.427106	1.308425
00:00:00.601	1.325275	1.384615	1.305495
00:00:00.601	1.320879	1.318681	1.298168
00:00:00.601	1.320879	1.283516	1.313553
00:00:00.602	1.304762	1.304762	1.276923
00:00:00.602	1.284982	1.306227	1.263004
00:00:00.602	1.277656	1.227839	1.276923
00:00:00.603	1.275458	1.251282	1.291575
00:00:00.603	1.288645	1.325275	1.308425
00:00:00.603	1.282784	1.323077	1.337729
00:00:00.604	1.286447	1.272527	1.331868
00:00:00.604	1.326740	1.309158	1.323810
00:00:00.605	1.323810	1.339194	1.306227
00:00:00.605	1.323810	1.306227	1.300366
00:00:00.605	1.318681	1.300366	1.304762
00:00:00.606	1.305495	1.369231	1.305495
00:00:00.638	1.302564	1.367033	1.308425
00:00:00.638	1.315018	1.353114	1.299634
00:00:00.639	1.333333	1.364835	1.311355
00:00:00.639	1.328938	1.342125	1.309890
00:00:00.639	1.328205	1.274725	1.305495
00:00:00.640	1.333333	1.282784	1.311355
00:00:00.640	1.320147	1.301832	1.297436
00:00:00.640	1.306227	1.345788	1.274725
00:00:00.641	1.301832	1.429304	1.293773
00:00:00.641	1.296703	1.472527	1.295971
00:00:00.641	1.271795	1.398535	1.280586
00:00:00.642	1.278388	1.287179	1.290842
00:00:00.642	1.297436	1.157509	1.279121
00:00:00.642	1.295971	1.065934	1.295238
00:00:00.643	1.295238	1.131136	1.308425
00:00:00.643	1.301832	1.223443	1.320879
00:00:00.644	1.305495	1.336264	1.340659
00:00:00.644	1.314286	1.364835	1.338462
00:00:00.644	1.305495	1.336996	1.306960
00:00:00.646	1.310623	1.339927	1.310623
00:00:00.646	1.318681	1.330403	1.309158
00:00:00.646	1.336996	1.335531	1.305495
00:00:00.646	1.338462	1.369231	1.309158
00:00:00.646	1.331868	1.366300	1.313553
00:00:00.646	1.328205	1.447619	1.309158
