timestamp	ch1	ch2	ch3
00:00:00.000	1.304762	1.298901	1.304762
00:00:00.000	1.303297	1.264469	1.306960
00:00:00.001	1.313553	1.213919	1.310623
00:00:00.001	1.325275	1.204396	1.307692
00:00:00.002	1.317949	1.178022	1.292308
00:00:00.002	1.306227	1.137729	1.282051
00:00:00.002	1.315018	1.219048	1.292308
00:00:00.003	1.312088	1.300366	1.300366
00:00:00.003	1.314286	1.336264	1.308425
00:00:00.003	1.315751	1.329670	1.308425
00:00:00.004	1.304762	1.349451	1.304029
00:00:00.004	1.304029	1.372894	1.304029
00:00:00.004	1.297436	1.367033	1.300366
00:00:00.005	1.310623	1.393407	1.309158
00:00:00.005	1.321612	1.394872	1.302564
00:00:00.006	1.308425	1.370696	1.317949
00:00:00.006	1.309890	1.350183	1.312088
00:00:00.007	1.312088	1.323077	1.308425
00:00:00.007	1.311355	1.299634	1.309890
00:00:00.007	1.313553	1.255678	1.306960
00:00:00.007	1.315751	1.269597	1.304029
00:00:00.008	1.309890	1.238828	1.290842
00:00:00.008	1.322344	1.234432	1.300366
00:00:00.008	1.314286	1.251282	1.298901
00:00:00.009	1.317216	1.293040	1.303297
00:00:00.045	1.315018	1.323810	1.308425
00:00:00.045	1.308425	1.326007	1.300366
00:00:00.045	1.306960	1.328205	1.304762
00:00:00.045	1.298901	1.332601	1.298168
00:00:00.045	1.295238	1.337729	1.300366
00:00:00.045	1.307692	1.350916	1.314286
00:00:00.045	1.311355	1.334799	1.305495
00:00:00.045	1.290842	1.315018	1.303297
00:00:00.045	1.313553	1.314286	1.305495
00:00:00.045	1.308425	1.306227	1.298168
00:00:00.045	1.313553	1.290842	1.301832
00:00:00.045	1.316484	1.284982	1.310623
00:00:00.045	1.315018	1.282784	1.295971
00:00:00.048	1.315018	1.290842	1.315018
00:00:00.048	1.320147	1.301832	1.304762
00:00:00.048	1.313553	1.301099	1.308425
00:00:00.048	1.318681	1.306227	1.312821
00:00:00.048	1.311355	1.304762	1.299634
00:00:00.048	1.299634	1.310623	1.297436
00:00:00.048	1.306227	1.324542	1.306960
00:00:00.048	1.301832	1.312088	1.287912
00:00:00.048	1.309158	1.322344	1.304762
00:00:00.049	1.311355	1.323810	1.306227
00:00:00.049	1.312088	1.320147	1.304762
00:00:00.049	1.313553	1.316484	1.309158
00:00:00.050	1.311355	1.312088	1.298901
00:00:00.050	1.318681	1.306227	1.304029
00:00:00.051	1.317216	1.312821	1.304029
00:00:00.051	1.310623	1.323810	1.305495
00:00:00.051	1.309890	1.340659	1.312088
00:00:00.052	1.319414	1.341392	1.312821
00:00:00.052	1.305495	1.308425	1.300366
00:00:00.052	1.317216	1.294505	1.310623
00:00:00.053	1.320147	1.283516	1.306960
00:00:00.053	1.317216	1.267399	1.308425
00:00:00.053	1.312088	1.267399	1.300366
00:00:00.054	1.307692	1.284249	1.304029
00:00:00.054	1.303297	1.329670	1.298901
00:00:00.055	1.292308	1.361172	1.299634
00:00:00.055	1.312088	1.348718	1.304762
00:00:00.055	1.309890	1.312821	1.306227
00:00:00.056	1.320147	1.260073	1.306227
00:00:00.056	1.318681	1.271795	1.312821
00:00:00.056	1.317216	1.259341	1.306960
00:00:00.057	1.316484	1.254945	1.311355
00:00:00.057	1.312088	1.297436	1.309890
00:00:00.057	1.309890	1.285714	1.306227
00:00:00.058	1.302564	1.286447	1.308425
00:00:00.058	1.290842	1.328938	1.299634
00:00:00.058	1.320879	1.379487	1.311355
00:00:00.091	1.316484	1.391941	1.304029
00:00:00.091	1.308425	1.362637	1.311355
00:00:00.091	1.312088	1.323810	1.306960
00:00:00.092	1.312821	1.286447	1.312821
00:00:00.092	1.306960	1.239560	1.294505
00:00:00.092	1.309890	1.194872	1.306960
00:00:00.093	1.306960	1.218315	1.306227
00:00:00.093	1.304762	1.282784	1.293773
00:00:00.093	1.309158	1.336996	1.305495
00:00:00.094	1.305495	1.343590	1.314286
00:00:00.094	1.326007	1.344322	1.308425
00:00:00.095	1.313553	1.382418	1.307692
00:00:00.095	1.331136	1.393407	1.309158
00:00:00.095	1.315751	1.336264	1.300366
00:00:00.096	1.304762	1.297436	1.304029
00:00:00.096	1.306227	1.267399	1.306227
00:00:00.096	1.300366	1.228571	1.302564
00:00:00.097	1.310623	1.236630	1.309890
00:00:00.097	1.306960	1.285714	1.300366
00:00:00.097	1.301832	1.356777	1.306227
00:00:00.098	1.311355	1.375824	1.306227
00:00:00.098	1.311355	1.358974	1.308425
00:00:00.098	1.306960	1.332601	1.299634
00:00:00.100	1.324542	1.313553	1.304762
00:00:00.100	1.313553	1.280586	1.309158
00:00:00.100	1.308425	1.280586	1.306227
00:00:00.100	1.312821	1.262271	1.303297
00:00:00.100	1.295971	1.273260	1.294505
00:00:00.101	1.315751	1.370696	1.311355
00:00:00.101	1.316484	1.400733	1.304762
00:00:00.101	1.310623	1.353846	1.309158
00:00:00.102	1.318681	1.302564	1.312088
00:00:00.102	1.314286	1.242491	1.304762
00:00:00.102	1.317949	1.183150	1.309158
00:00:00.103	1.312821	1.208059	1.304029
00:00:00.103	1.307692	1.283516	1.307692
00:00:00.104	1.311355	1.335531	1.309158
00:00:00.104	1.306960	1.356777	1.303297
00:00:00.104	1.294505	1.323810	1.300366
00:00:00.105	1.309158	1.315018	1.301832
00:00:00.105	1.308425	1.312821	1.307692
00:00:00.105	1.312088	1.320147	1.317216
00:00:00.106	1.315018	1.325275	1.309158
00:00:00.108	1.317216	1.329670	1.303297
00:00:00.108	1.320879	1.325275	1.315018
00:00:00.108	1.298168	1.304762	1.302564
00:00:00.108	1.302564	1.305495	1.300366
00:00:00.108	1.323810	1.303297	1.310623
00:00:00.108	1.317216	1.306227	1.306227
00:00:00.108	1.315018	1.314286	1.309890
00:00:00.141	1.314286	1.321612	1.309158
00:00:00.141	1.305495	1.306960	1.298168
00:00:00.141	1.312088	1.306227	1.303297
00:00:00.141	1.306960	1.308425	1.304029
00:00:00.145	1.308425	1.319414	1.307692
00:00:00.145	1.302564	1.315751	1.301832
00:00:00.145	1.307692	1.326007	1.304762
00:00:00.145	1.306960	1.323077	1.300366
00:00:00.145	1.303297	1.320147	1.304029
00:00:00.145	1.305495	1.308425	1.304762
00:00:00.145	1.313553	1.290110	1.303297
00:00:00.145	1.311355	1.276923	1.304762
00:00:00.145	1.317216	1.282051	1.302564
00:00:00.145	1.315018	1.278388	1.312821
00:00:00.145	1.319414	1.284982	1.306960
00:00:00.146	1.316484	1.312088	1.304029
00:00:00.146	1.306227	1.315018	1.298168
00:00:00.146	1.320879	1.336264	1.307692
00:00:00.147	1.309158	1.312088	1.300366
00:00:00.147	1.300366	1.312821	1.308425
00:00:00.148	1.309890	1.318681	1.309158
00:00:00.148	1.310623	1.324542	1.308425
00:00:00.148	1.307692	1.323077	1.312821
00:00:00.149	1.302564	1.320879	1.307692
00:00:00.149	1.306960	1.315018	1.309890
00:00:00.149	1.306960	1.316484	1.309158
00:00:00.150	1.308425	1.300366	1.308425
00:00:00.150	1.308425	1.307692	1.303297
00:00:00.150	1.309890	1.312821	1.304762
00:00:00.152	1.311355	1.309890	1.303297
00:00:00.152	1.314286	1.300366	1.294505
00:00:00.152	1.320147	1.301099	1.312821
00:00:00.152	1.314286	1.274725	1.295971
00:00:00.152	1.328938	1.288645	1.313553
00:00:00.153	1.320879	1.275458	1.305495
00:00:00.153	1.310623	1.259341	1.307692
00:00:00.153	1.311355	1.267399	1.305495
00:00:00.154	1.309158	1.299634	1.307692
00:00:00.154	1.306227	1.323810	1.311355
00:00:00.154	1.289377	1.361172	1.315018
00:00:00.155	1.300366	1.361172	1.296703
00:00:00.155	1.318681	1.353114	1.312088
00:00:00.155	1.315018	1.334799	1.314286
00:00:00.156	1.304762	1.308425	1.306227
00:00:00.156	1.309890	1.295238	1.306227
00:00:00.156	1.306960	1.276190	1.300366
00:00:00.157	1.320147	1.292308	1.309158
00:00:00.157	1.315751	1.295971	1.300366
00:00:00.158	1.319414	1.297436	1.302564
00:00:00.158	1.311355	1.293040	1.292308
00:00:00.190	1.314286	1.315751	1.308425
00:00:00.190	1.309158	1.334066	1.304762
00:00:00.191	1.312088	1.336264	1.304762
00:00:00.191	1.309890	1.310623	1.298168
00:00:00.191	1.306227	1.293040	1.309158
00:00:00.192	1.302564	1.284982	1.300366
00:00:00.192	1.301099	1.282051	1.306227
00:00:00.193	1.312088	1.268864	1.295238
00:00:00.193	1.312088	1.297436	1.312821
00:00:00.193	1.314286	1.336264	1.305495
00:00:00.194	1.316484	1.345055	1.307692
00:00:00.194	1.303297	1.304029	1.298901
00:00:00.194	1.309890	1.298901	1.307692
00:00:00.195	1.315018	1.295238	1.306227
00:00:00.195	1.312088	1.295238	1.298168
00:00:00.195	1.318681	1.293040	1.309890
00:00:00.196	1.315018	1.280586	1.306227
00:00:00.196	1.312088	1.285714	1.307692
00:00:00.197	1.310623	1.310623	1.309158
00:00:00.197	1.314286	1.309158	1.304029
00:00:00.197	1.328205	1.302564	1.306960
00:00:00.198	1.311355	1.328205	1.306227
00:00:00.198	1.307692	1.347985	1.300366
00:00:00.198	1.309890	1.356777	1.309158
00:00:00.199	1.312821	1.342857	1.312088
00:00:00.199	1.300366	1.309158	1.304029
00:00:00.199	1.301832	1.312821	1.304762
00:00:00.201	1.304029	1.301099	1.304029
00:00:00.201	1.309158	1.300366	1.294505
00:00:00.201	1.316484	1.300366	1.302564
00:00:00.201	1.320147	1.296703	1.308425
00:00:00.201	1.322344	1.293040	1.296703
00:00:00.203	1.322344	1.297436	1.306960
00:00:00.203	1.315018	1.293040	1.310623
00:00:00.203	1.315018	1.297436	1.300366
00:00:00.204	1.310623	1.308425	1.312821
00:00:00.204	1.304029	1.295238	1.298168
00:00:00.204	1.301832	1.301099	1.297436
00:00:00.204	1.304029	1.317216	1.306227
00:00:00.204	1.304029	1.320879	1.305495
00:00:00.204	1.307692	1.332601	1.304762
00:00:00.206	1.304762	1.334066	1.305495
00:00:00.206	1.295238	1.319414	1.305495
00:00:00.206	1.307692	1.328205	1.310623
00:00:00.206	1.315018	1.321612	1.304029
00:00:00.206	1.315018	1.300366	1.306227
00:00:00.210	1.316484	1.290110	1.303297
00:00:00.210	1.305495	1.281319	1.308425
00:00:00.210	1.316484	1.283516	1.309158
00:00:00.210	1.313553	1.264469	1.299634
00:00:00.241	1.299634	1.250549	1.299634
00:00:00.241	1.315751	1.298168	1.309158
00:00:00.241	1.308425	1.316484	1.302564
00:00:00.241	1.302564	1.318681	1.312088
00:00:00.241	1.303297	1.322344	1.304762
00:00:00.242	1.303297	1.317216	1.307692
00:00:00.242	1.312088	1.323077	1.308425
00:00:00.242	1.305495	1.317949	1.296703
00:00:00.243	1.308425	1.321612	1.304029
00:00:00.243	1.324542	1.323810	1.312088
00:00:00.243	1.301832	1.297436	1.300366
00:00:00.244	1.316484	1.311355	1.310623
00:00:00.244	1.315018	1.298168	1.306227
00:00:00.244	1.326740	1.281319	1.306960
00:00:00.245	1.317216	1.294505	1.309158
00:00:00.245	1.311355	1.294505	1.300366
00:00:00.246	1.306960	1.290110	1.310623
00:00:00.246	1.322344	1.290110	1.311355
00:00:00.246	1.315751	1.296703	1.309890
00:00:00.247	1.303297	1.304762	1.307692
00:00:00.247	1.310623	1.304029	1.309158
00:00:00.247	1.304029	1.312821	1.292308
00:00:00.248	1.290110	1.314286	1.298168
00:00:00.248	1.297436	1.325275	1.293040
00:00:00.248	1.294505	1.323810	1.305495
00:00:00.249	1.306227	1.329670	1.312821
00:00:00.249	1.296703	1.290110	1.292308
00:00:00.249	1.315018	1.310623	1.308425
00:00:00.250	1.318681	1.333333	1.311355
00:00:00.250	1.317949	1.323810	1.309890
00:00:00.251	1.325275	1.296703	1.306960
00:00:00.251	1.327473	1.283516	1.309158
00:00:00.251	1.314286	1.282051	1.306227
00:00:00.252	1.315751	1.312088	1.314286
00:00:00.252	1.317949	1.319414	1.304029
00:00:00.252	1.317949	1.335531	1.308425
00:00:00.253	1.314286	1.341392	1.309890
00:00:00.253	1.303297	1.320879	1.303297
00:00:00.253	1.305495	1.312821	1.314286
00:00:00.254	1.303297	1.305495	1.305495
00:00:00.254	1.315751	1.320879	1.309158
00:00:00.254	1.319414	1.327473	1.311355
00:00:00.255	1.317949	1.332601	1.310623
00:00:00.256	1.306227	1.309158	1.296703
00:00:00.256	1.314286	1.308425	1.312821
00:00:00.256	1.314286	1.291575	1.304762
00:00:00.256	1.310623	1.276923	1.302564
00:00:00.257	1.304029	1.266667	1.300366
00:00:00.257	1.324542	1.276190	1.312088
00:00:00.257	1.308425	1.281319	1.303297
00:00:00.290	1.311355	1.302564	1.307692
00:00:00.290	1.301832	1.304029	1.302564
00:00:00.290	1.300366	1.301832	1.298168
00:00:00.291	1.309158	1.317949	1.310623
00:00:00.291	1.308425	1.313553	1.304029
00:00:00.291	1.288645	1.295971	1.290842
00:00:00.292	1.296703	1.317949	1.306227
00:00:00.292	1.312088	1.321612	1.303297
00:00:00.292	1.303297	1.336996	1.307692
00:00:00.293	1.314286	1.320879	1.309890
00:00:00.293	1.305495	1.296703	1.300366
00:00:00.293	1.313553	1.295238	1.307692
00:00:00.294	1.315018	1.281319	1.305495
00:00:00.294	1.313553	1.276190	1.306960
00:00:00.295	1.332601	1.291575	1.306227
00:00:00.295	1.323077	1.317216	1.305495
00:00:00.295	1.328205	1.329670	1.309890
00:00:00.297	1.313553	1.311355	1.309158
00:00:00.297	1.306960	1.304762	1.304029
00:00:00.297	1.294505	1.304029	1.306227
00:00:00.297	1.290842	1.306227	1.305495
00:00:00.297	1.297436	1.308425	1.304762
00:00:00.297	1.288645	1.300366	1.298168
00:00:00.298	1.301099	1.314286	1.312088
00:00:00.298	1.296703	1.302564	1.303297
00:00:00.298	1.312821	1.316484	1.308425
00:00:00.299	1.315751	1.311355	1.306960
00:00:00.299	1.306960	1.295238	1.299634
00:00:00.302	1.317216	1.306960	1.307692
00:00:00.302	1.320147	1.293040	1.304029
00:00:00.302	1.316484	1.293773	1.306227
00:00:00.302	1.320147	1.295238	1.308425
00:00:00.302	1.311355	1.282784	1.290110
00:00:00.302	1.334066	1.309158	1.312821
00:00:00.302	1.294505	1.309890	1.306227
00:00:00.302	1.287912	1.317216	1.304029
00:00:00.302	1.276190	1.329670	1.307692
00:00:00.306	1.276190	1.317949	1.304029
00:00:00.306	1.266667	1.321612	1.303297
00:00:00.306	1.279853	1.324542	1.310623
00:00:00.306	1.417582	1.311355	1.307692
00:00:00.306	1.398535	1.303297	1.309890
00:00:00.306	1.390476	1.304029	1.304762
00:00:00.306	1.357509	1.300366	1.306960
00:00:00.306	1.361905	1.309158	1.302564
00:00:00.306	1.346520	1.306227	1.304762
00:00:00.306	1.295971	1.301832	1.302564
00:00:00.306	1.295238	1.293773	1.300366
00:00:00.307	1.268132	1.286447	1.311355
00:00:00.307	1.214652	1.273993	1.290110
00:00:00.340	1.230037	1.298168	1.309158
00:00:00.340	1.200733	1.295971	1.309158
00:00:00.340	1.163370	1.298901	1.315751
00:00:00.340	1.429304	1.316484	1.320879
00:00:00.341	1.378755	1.324542	1.319414
00:00:00.341	1.326007	1.308425	1.300366
00:00:00.341	1.295238	1.300366	1.301832
00:00:00.342	1.306960	1.318681	1.308425
00:00:00.342	1.313553	1.325275	1.306960
00:00:00.342	1.326007	1.318681	1.299634
00:00:00.343	1.337729	1.295238	1.291575
00:00:00.343	1.339194	1.304029	1.299634
00:00:00.344	1.340659	1.309158	1.294505
00:00:00.344	1.286447	1.300366	1.303297
00:00:00.344	1.311355	1.292308	1.305495
00:00:00.345	1.330403	1.289377	1.300366
00:00:00.345	1.312088	1.306227	1.311355
00:00:00.345	1.298168	1.306960	1.304762
00:00:00.346	1.297436	1.302564	1.301832
00:00:00.346	1.312088	1.315751	1.306960
00:00:00.346	1.308425	1.311355	1.305495
00:00:00.347	1.305495	1.312821	1.309158
00:00:00.347	1.299634	1.323077	1.304762
00:00:00.347	1.294505	1.307692	1.295971
00:00:00.348	1.306960	1.323077	1.310623
00:00:00.348	1.301832	1.302564	1.304029
00:00:00.349	1.304762	1.266667	1.298901
00:00:00.349	1.315018	1.282784	1.304762
00:00:00.349	1.319414	1.317216	1.302564
00:00:00.350	1.323077	1.339194	1.306960
00:00:00.350	1.324542	1.335531	1.306227
00:00:00.350	1.309890	1.312088	1.307692
00:00:00.351	1.311355	1.301832	1.298168
00:00:00.351	1.314286	1.301099	1.306227
00:00:00.351	1.319414	1.301832	1.306227
00:00:00.352	1.318681	1.302564	1.304029
00:00:00.352	1.295971	1.294505	1.300366
00:00:00.352	1.309158	1.315751	1.306227
00:00:00.353	1.298168	1.313553	1.300366
00:00:00.353	1.296703	1.309158	1.303297
00:00:00.354	1.292308	1.304762	1.300366
00:00:00.354	1.307692	1.313553	1.305495
00:00:00.354	1.305495	1.310623	1.306227
00:00:00.355	1.307692	1.299634	1.293773
00:00:00.355	1.310623	1.308425	1.310623
00:00:00.355	1.312821	1.298168	1.306227
00:00:00.356	1.308425	1.287912	1.295971
00:00:00.356	1.314286	1.295238	1.306227
00:00:00.356	1.323077	1.293040	1.304029
00:00:00.357	1.323077	1.301099	1.309890
00:00:00.389	1.320879	1.297436	1.306227
00:00:00.389	1.316484	1.269597	1.303297
00:00:00.390	1.312821	1.280586	1.306960
00:00:00.390	1.315018	1.270330	1.309158
00:00:00.390	1.299634	1.290842	1.293773
00:00:00.391	1.309158	1.350183	1.312088
00:00:00.391	1.299634	1.359707	1.292308
00:00:00.392	1.306227	1.363370	1.310623
00:00:00.392	1.303297	1.356044	1.304762
00:00:00.392	1.296703	1.323810	1.294505
00:00:00.393	1.311355	1.320879	1.295971
00:00:00.393	1.316484	1.316484	1.306960
00:00:00.393	1.318681	1.309158	1.307692
00:00:00.395	1.312821	1.301832	1.306227
00:00:00.395	1.306960	1.283516	1.298901
00:00:00.395	1.320147	1.277656	1.308425
00:00:00.395	1.316484	1.252747	1.303297
00:00:00.395	1.317216	1.270330	1.312821
00:00:00.395	1.314286	1.291575	1.308425
00:00:00.398	1.312821	1.304029	1.294505
00:00:00.398	1.312088	1.321612	1.311355
00:00:00.398	1.313553	1.328205	1.317949
00:00:00.398	1.307692	1.324542	1.304029
00:00:00.398	1.308425	1.321612	1.296703
00:00:00.398	1.301832	1.304029	1.293773
00:00:00.398	1.301099	1.301832	1.304029
00:00:00.398	1.309890	1.306960	1.308425
00:00:00.401	1.304029	1.303297	1.303297
00:00:00.401	1.309890	1.305495	1.300366
00:00:00.401	1.317216	1.296703	1.310623
00:00:00.401	1.305495	1.285714	1.298168
00:00:00.401	1.318681	1.303297	1.303297
00:00:00.401	1.320879	1.312088	1.300366
00:00:00.401	1.322344	1.311355	1.304029
00:00:00.401	1.313553	1.308425	1.309890
00:00:00.401	1.320147	1.312821	1.304029
00:00:00.402	1.312821	1.308425	1.304762
00:00:00.402	1.309158	1.316484	1.302564
00:00:00.403	1.309158	1.301099	1.294505
00:00:00.403	1.305495	1.299634	1.301832
00:00:00.403	1.299634	1.302564	1.297436
00:00:00.404	1.303297	1.322344	1.308425
00:00:00.404	1.306227	1.326007	1.304029
00:00:00.404	1.303297	1.320879	1.309890
00:00:00.405	1.311355	1.314286	1.308425
00:00:00.405	1.316484	1.305495	1.310623
00:00:00.405	1.317216	1.300366	1.300366
00:00:00.406	1.318681	1.288645	1.304762
00:00:00.406	1.320879	1.287912	1.308425
00:00:00.407	1.318681	1.292308	1.302564
00:00:00.439	1.310623	1.290842	1.291575
00:00:00.439	1.315018	1.301099	1.308425
00:00:00.439	1.303297	1.315018	1.300366
00:00:00.440	1.315018	1.330403	1.305495
00:00:00.440	1.298168	1.297436	1.298901
00:00:00.440	1.311355	1.309890	1.309158
00:00:00.441	1.309890	1.312088	1.312821
00:00:00.441	1.303297	1.309890	1.308425
00:00:00.442	1.304762	1.297436	1.306227
00:00:00.442	1.300366	1.281319	1.300366
00:00:00.442	1.309158	1.304029	1.312821
00:00:00.443	1.313553	1.312821	1.311355
00:00:00.443	1.308425	1.298168	1.308425
00:00:00.443	1.319414	1.299634	1.309158
00:00:00.444	1.320147	1.298168	1.309890
00:00:00.444	1.320879	1.306227	1.310623
00:00:00.444	1.311355	1.303297	1.295238
00:00:00.445	1.317949	1.317216	1.309890
00:00:00.445	1.317216	1.314286	1.304029
00:00:00.445	1.309158	1.312088	1.307692
00:00:00.446	1.307692	1.326740	1.304029
00:00:00.446	1.309890	1.337729	1.306960
00:00:00.447	1.310623	1.342125	1.309158
00:00:00.447	1.300366	1.320147	1.295971
00:00:00.447	1.305495	1.315751	1.301832
00:00:00.448	1.307692	1.293773	1.300366
00:00:00.448	1.306960	1.284982	1.305495
00:00:00.448	1.312088	1.285714	1.309890
00:00:00.449	1.304029	1.285714	1.301832
00:00:00.449	1.315018	1.303297	1.312088
00:00:00.449	1.318681	1.304762	1.304762
00:00:00.450	1.316484	1.304029	1.309158
00:00:00.450	1.319414	1.288645	1.309158
00:00:00.450	1.321612	1.294505	1.306227
00:00:00.451	1.316484	1.298901	1.308425
00:00:00.451	1.316484	1.293040	1.307692
00:00:00.452	1.314286	1.296703	1.309158
00:00:00.452	1.314286	1.304029	1.314286
00:00:00.452	1.312088	1.302564	1.305495
00:00:00.453	1.306960	1.301832	1.306227
00:00:00.453	1.300366	1.320147	1.304029
00:00:00.453	1.312088	1.339927	1.307692
00:00:00.454	1.312088	1.336264	1.308425
00:00:00.454	1.307692	1.326007	1.308425
00:00:00.454	1.310623	1.321612	1.300366
00:00:00.455	1.312088	1.300366	1.307692
00:00:00.455	1.312088	1.276190	1.300366
00:00:00.456	1.317216	1.290842	1.307692
00:00:00.456	1.310623	1.312821	1.304029
00:00:00.456	1.312821	1.311355	1.304762
00:00:00.488	1.320147	1.319414	1.313553
00:00:00.489	1.315751	1.292308	1.302564
00:00:00.489	1.315751	1.317216	1.309890
00:00:00.489	1.313553	1.331868	1.309890
00:00:00.492	1.302564	1.328938	1.306960
00:00:00.492	1.302564	1.316484	1.301099
00:00:00.492	1.295238	1.307692	1.300366
00:00:00.492	1.300366	1.315018	1.303297
00:00:00.492	1.298901	1.300366	1.290842
00:00:00.492	1.314286	1.309158	1.300366
00:00:00.492	1.306227	1.312821	1.302564
00:00:00.492	1.315751	1.290842	1.306227
00:00:00.494	1.316484	1.284982	1.299634
00:00:00.494	1.311355	1.289377	1.306227
00:00:00.494	1.315018	1.271062	1.303297
00:00:00.494	1.322344	1.261538	1.313553
00:00:00.494	1.312088	1.252747	1.305495
00:00:00.494	1.315751	1.273993	1.308425
00:00:00.498	1.310623	1.295238	1.300366
00:00:00.498	1.316484	1.279853	1.301832
00:00:00.498	1.310623	1.298168	1.309158
00:00:00.498	1.304029	1.315751	1.300366
00:00:00.498	1.304762	1.306960	1.303297
00:00:00.498	1.306227	1.312088	1.304029
00:00:00.498	1.308425	1.315018	1.309158
00:00:00.498	1.313553	1.326007	1.310623
00:00:00.498	1.310623	1.320147	1.302564
00:00:00.498	1.288645	1.320147	1.295238
00:00:00.498	1.313553	1.333333	1.304029
00:00:00.500	1.312088	1.328205	1.294505
00:00:00.500	1.316484	1.345055	1.298901
00:00:00.500	1.319414	1.326740	1.304029
00:00:00.500	1.306960	1.303297	1.293040
00:00:00.500	1.320147	1.312821	1.309158
00:00:00.501	1.312088	1.303297	1.295971
00:00:00.501	1.316484	1.292308	1.308425
00:00:00.501	1.306227	1.290110	1.308425
00:00:00.502	1.315018	1.302564	1.313553
00:00:00.502	1.306227	1.265201	1.309890
00:00:00.502	1.313553	1.249817	1.314286
00:00:00.503	1.293773	1.280586	1.309158
00:00:00.503	1.308425	1.315751	1.310623
00:00:00.503	1.304029	1.300366	1.304762
00:00:00.504	1.307692	1.295971	1.305495
00:00:00.504	1.312088	1.340659	1.307692
00:00:00.505	1.312088	1.341392	1.296703
00:00:00.505	1.315018	1.344322	1.297436
00:00:00.505	1.319414	1.336264	1.310623
00:00:00.506	1.309158	1.335531	1.304029
00:00:00.506	1.323810	1.334066	1.309158
00:00:00.538	1.318681	1.313553	1.306960
00:00:00.538	1.314286	1.296703	1.300366
00:00:00.539	1.314286	1.271062	1.305495
00:00:00.539	1.309890	1.250549	1.295238
00:00:00.540	1.315018	1.271062	1.305495
00:00:00.540	1.306227	1.297436	1.297436
00:00:00.540	1.314286	1.330403	1.312088
00:00:00.541	1.309158	1.369231	1.312821
00:00:00.541	1.299634	1.358242	1.316484
00:00:00.541	1.313553	1.323810	1.308425
00:00:00.542	1.309890	1.295238	1.310623
00:00:00.542	1.314286	1.312088	1.304762
00:00:00.542	1.319414	1.334799	1.308425
00:00:00.543	1.315751	1.306960	1.308425
00:00:00.543	1.309890	1.295238	1.309158
00:00:00.544	1.323077	1.292308	1.309890
00:00:00.544	1.304029	1.250549	1.291575
00:00:00.544	1.315751	1.262271	1.302564
00:00:00.545	1.316484	1.288645	1.304029
00:00:00.545	1.312088	1.278388	1.304029
00:00:00.545	1.306227	1.295971	1.292308
00:00:00.546	1.308425	1.334066	1.292308
00:00:00.546	1.313553	1.356777	1.310623
00:00:00.546	1.305495	1.337729	1.313553
00:00:00.547	1.305495	1.326740	1.307692
00:00:00.547	1.295971	1.344322	1.303297
00:00:00.547	1.311355	1.331868	1.292308
00:00:00.548	1.300366	1.265201	1.296703
00:00:00.549	1.307692	1.237363	1.303297
00:00:00.549	1.303297	1.229304	1.295971
00:00:00.549	1.311355	1.242491	1.290110
00:00:00.549	1.311355	1.284249	1.301099
00:00:00.550	1.314286	1.296703	1.304029
00:00:00.550	1.306227	1.276190	1.298901
00:00:00.551	1.316484	1.265934	1.309890
00:00:00.551	1.316484	1.273993	1.309158
00:00:00.551	1.321612	1.298168	1.316484
00:00:00.551	1.304029	1.324542	1.303297
00:00:00.552	1.303297	1.341392	1.295238
00:00:00.552	1.307692	1.367766	1.313553
00:00:00.552	1.308425	1.359707	1.306960
00:00:00.553	1.300366	1.345055	1.303297
00:00:00.553	1.296703	1.328205	1.295971
00:00:00.555	1.308425	1.339194	1.294505
00:00:00.555	1.315751	1.354579	1.309890
00:00:00.555	1.312088	1.331136	1.309890
00:00:00.558	1.315751	1.319414	1.306227
00:00:00.558	1.303297	1.303297	1.305495
00:00:00.558	1.314286	1.302564	1.312088
00:00:00.558	1.315018	1.307692	1.295971
00:00:00.589	1.322344	1.345788	1.312088
00:00:00.589	1.317949	1.330403	1.302564
00:00:00.590	1.316484	1.318681	1.309890
00:00:00.590	1.317216	1.319414	1.307692
00:00:00.590	1.312821	1.284982	1.303297
00:00:00.590	1.313553	1.254945	1.312088
00:00:00.590	1.306960	1.274725	1.305495
00:00:00.590	1.311355	1.277656	1.303297
00:00:00.594	1.307692	1.273260	1.315018
00:00:00.594	1.312088	1.287912	1.312088
00:00:00.594	1.307692	1.325275	1.296703
00:00:00.594	1.313553	1.350916	1.310623
00:00:00.594	1.312088	1.339927	1.309158
00:00:00.594	1.307692	1.310623	1.295971
00:00:00.594	1.318681	1.315751	1.310623
00:00:00.594	1.316484	1.299634	1.308425
00:00:00.594	1.317949	1.299634	1.309158
00:00:00.594	1.320147	1.296703	1.308425
00:00:00.594	1.317216	1.303297	1.305495
00:00:00.595	1.312088	1.312821	1.307692
00:00:00.595	1.307692	1.312088	1.304029
00:00:00.595	1.313553	1.319414	1.304762
00:00:00.596	1.297436	1.304762	1.296703
00:00:00.596	1.305495	1.314286	1.305495
00:00:00.596	1.291575	1.304762	1.303297
00:00:00.597	1.304762	1.322344	1.305495
00:00:00.597	1.302564	1.320879	1.295238
00:00:00.598	1.304762	1.319414	1.304029
00:00:00.598	1.308425	1.327473	1.310623
00:00:00.598	1.315018	1.330403	1.307692
00:00:00.599	1.314286	1.315018	1.302564
00:00:00.599	1.315751	1.305495	1.294505
00:00:00.599	1.316484	1.295238	1.301832
00:00:00.600	1.315751	1.293773	1.304029
00:00:00.600	1.317216	1.304762	1.312088
00:00:00.601	1.315018	1.295238	1.295971
00:00:00.601	1.314286	1.305495	1.308425
00:00:00.601	1.313553	1.300366	1.309158
00:00:00.601	1.310623	1.298901	1.305495
00:00:00.602	1.310623	1.312821	1.311355
00:00:00.602	1.308425	1.320147	1.315751
00:00:00.603	1.306227	1.321612	1.314286
00:00:00.603	1.307692	1.325275	1.315751
00:00:00.603	1.312088	1.330403	1.308425
00:00:00.604	1.313553	1.317216	1.310623
00:00:00.604	1.301832	1.299634	1.304029
00:00:00.604	1.310623	1.300366	1.309158
00:00:00.605	1.318681	1.293773	1.299634
00:00:00.605	1.324542	1.323810	1.302564
00:00:00.605	1.320879	1.347253	1.306960
00:00:00.638	1.320147	1.339927	1.297436
00:00:00.638	1.314286	1.309158	1.303297
00:00:00.638	1.315018	1.273993	1.300366
00:00:00.639	1.315018	1.219780	1.311355
00:00:00.639	1.314286	1.250549	1.312821
00:00:00.639	1.304029	1.301099	1.315751
00:00:00.640	1.309158	1.316484	1.311355
00:00:00.640	1.305495	1.321612	1.308425
00:00:00.640	1.305495	1.307692	1.310623
00:00:00.641	1.304029	1.317216	1.299634
00:00:00.641	1.299634	1.315751	1.300366
00:00:00.642	1.312088	1.328205	1.307692
00:00:00.642	1.308425	1.324542	1.306960
00:00:00.642	1.319414	1.326007	1.309890
00:00:00.643	1.315751	1.312821	1.303297
00:00:00.643	1.320879	1.305495	1.308425
00:00:00.643	1.319414	1.302564	1.300366
00:00:00.644	1.317949	1.295971	1.295238
00:00:00.644	1.325275	1.309890	1.312088
00:00:00.644	1.318681	1.302564	1.309890
00:00:00.645	1.309158	1.297436	1.294505
00:00:00.645	1.309890	1.330403	1.306960
00:00:00.645	1.305495	1.328205	1.300366
00:00:00.646	1.306227	1.339194	1.304029
00:00:00.647	1.306227	1.340659	1.304762
00:00:00.647	1.303297	1.358974	1.304029
00:00:00.647	1.301832	1.405128	1.308425
00:00:00.647	1.307692	1.441026	1.317216
00:00:00.648	1.309158	1.385348	1.315018
00:00:00.648	1.314286	1.330403	1.306960
00:00:00.648	1.314286	1.252015	1.315018
00:00:00.649	1.321612	1.170696	1.309890
00:00:00.649	1.322344	1.153114	1.309158
00:00:00.649	1.323810	1.136996	1.309890
00:00:00.651	1.316484	1.151648	1.293773
00:00:00.651	1.304762	1.212454	1.288645
00:00:00.651	1.318681	1.283516	1.300366
00:00:00.652	1.317949	1.313553	1.307692
00:00:00.652	1.303297	1.342857	1.307692
00:00:00.653	1.312821	1.365568	1.308425
00:00:00.653	1.312088	1.366300	1.304029
00:00:00.654	1.306227	1.360440	1.309158
00:00:00.654	1.307692	1.356777	1.312088
00:00:00.654	1.295238	1.344322	1.299634
00:00:00.654	1.306960	1.342125	1.306227
00:00:00.654	1.309158	1.326007	1.304029
00:00:00.654	1.314286	1.332601	1.313553
00:00:00.654	1.312821	1.309158	1.304029
00:00:00.655	1.312088	1.302564	1.310623
00:00:00.655	1.320879	1.298901	1.309158
00:00:00.691	1.316484	1.294505	1.308425
00:00:00.691	1.322344	1.307692	1.306960
00:00:00.691	1.321612	1.315018	1.309890
00:00:00.691	1.316484	1.324542	1.304762
00:00:00.691	1.309890	1.333333	1.309890
00:00:00.691	1.307692	1.313553	1.309890
00:00:00.691	1.311355	1.306227	1.304762
00:00:00.691	1.306227	1.333333	1.315751
00:00:00.691	1.306227	1.337729	1.300366
00:00:00.691	1.306227	1.329670	1.309890
00:00:00.691	1.309158	1.322344	1.306227
00:00:00.691	1.301099	1.298901	1.299634
00:00:00.692	1.309890	1.294505	1.304029
00:00:00.692	1.309890	1.282784	1.306227
00:00:00.692	1.312088	1.287179	1.309890
00:00:00.693	1.314286	1.293040	1.312088
00:00:00.693	1.313553	1.287912	1.304029
00:00:00.693	1.320147	1.293773	1.312088
00:00:00.694	1.315751	1.298901	1.309890
00:00:00.694	1.317216	1.303297	1.306227
00:00:00.694	1.304762	1.293773	1.300366
00:00:00.695	1.303297	1.293773	1.293040
00:00:00.695	1.309158	1.299634	1.292308
00:00:00.696	1.310623	1.316484	1.312821
00:00:00.696	1.306960	1.318681	1.307692
00:00:00.696	1.296703	1.317216	1.299634
00:00:00.697	1.302564	1.323810	1.306227
00:00:00.697	1.307692	1.323810	1.305495
00:00:00.697	1.309158	1.327473	1.313553
00:00:00.698	1.315751	1.317216	1.302564
00:00:00.698	1.315018	1.317949	1.309890
00:00:00.698	1.315751	1.304762	1.308425
00:00:00.699	1.321612	1.306227	1.306960
00:00:00.699	1.312088	1.298901	1.289377
00:00:00.699	1.303297	1.293040	1.304762
00:00:00.700	1.318681	1.275458	1.308425
00:00:00.700	1.307692	1.276923	1.297436
00:00:00.701	1.312088	1.298901	1.307692
00:00:00.701	1.312088	1.307692	1.306227
00:00:00.701	1.304762	1.297436	1.302564
00:00:00.702	1.303297	1.278388	1.302564
00:00:00.702	1.303297	1.301832	1.300366
00:00:00.702	1.295238	1.297436	1.304029
00:00:00.703	1.309158	1.312821	1.315018
00:00:00.703	1.312088	1.321612	1.312821
00:00:00.703	1.307692	1.326007	1.309890
00:00:00.704	1.314286	1.320147	1.304029
00:00:00.704	1.301832	1.311355	1.308425
00:00:00.705	1.314286	1.312088	1.300366
00:00:00.705	1.311355	1.320879	1.305495
00:00:00.737	1.314286	1.304762	1.311355
00:00:00.737	1.318681	1.302564	1.303297
00:00:00.738	1.319414	1.305495	1.308425
00:00:00.738	1.314286	1.304762	1.307692
00:00:00.738	1.315018	1.312821	1.309890
00:00:00.739	1.300366	1.304029	1.299634
00:00:00.739	1.317216	1.311355	1.312088
00:00:00.740	1.301099	1.314286	1.310623
00:00:00.740	1.301832	1.316484	1.312088
00:00:00.740	1.307692	1.309158	1.304029
00:00:00.741	1.300366	1.299634	1.300366
00:00:00.741	1.305495	1.323077	1.304762
00:00:00.741	1.313553	1.320147	1.304029
00:00:00.742	1.315018	1.315751	1.301832
00:00:00.742	1.318681	1.317216	1.302564
00:00:00.743	1.320147	1.312088	1.311355
00:00:00.743	1.315018	1.289377	1.308425
00:00:00.743	1.320879	1.277656	1.305495
00:00:00.743	1.314286	1.263736	1.304029
00:00:00.744	1.311355	1.267399	1.297436
00:00:00.744	1.316484	1.306227	1.300366
00:00:00.745	1.306227	1.320879	1.295238
00:00:00.745	1.312088	1.334066	1.309890
00:00:00.745	1.308425	1.324542	1.303297
00:00:00.747	1.310623	1.317216	1.308425
