timestamp	ch1	ch2	ch3
00:00:00.000	1.306227	1.318681	1.264469
00:00:00.001	1.307692	1.138462	1.257143
00:00:00.001	1.312821	1.142125	1.273993
00:00:00.002	1.315751	1.150183	1.273993
00:00:00.002	1.332601	1.224176	1.305495
00:00:00.002	1.314286	1.312821	1.308425
00:00:00.003	1.321612	1.339194	1.330403
00:00:00.003	1.312821	1.350916	1.342857
00:00:00.003	1.304762	1.374359	1.351648
00:00:00.004	1.298901	1.369963	1.304762
00:00:00.004	1.301832	1.350183	1.326740
00:00:00.004	1.300366	1.349451	1.343590
00:00:00.005	1.317949	1.386081	1.331136
00:00:00.005	1.313553	1.407326	1.263736
00:00:00.005	1.309158	1.446154	1.268864
00:00:00.006	1.306960	1.429304	1.290842
00:00:00.006	1.302564	1.429304	1.295238
00:00:00.007	1.310623	1.410256	1.278388
00:00:00.007	1.311355	1.329670	1.283516
00:00:00.007	1.305495	1.244689	1.307692
00:00:00.008	1.312821	1.171429	1.297436
00:00:00.008	1.308425	1.208791	1.300366
00:00:00.008	1.291575	1.198535	1.290110
00:00:00.009	1.314286	1.249817	1.302564
00:00:00.009	1.306960	1.322344	1.297436
00:00:00.009	1.319414	1.363370	1.312821
00:00:00.010	1.312821	1.363370	1.307692
00:00:00.010	1.309158	1.280586	1.307692
00:00:00.010	1.307692	1.205128	1.300366
00:00:00.011	1.301832	1.219048	1.301832
00:00:00.011	1.302564	1.293040	1.308425
00:00:00.012	1.307692	1.350916	1.312821
00:00:00.012	1.307692	1.378755	1.316484
00:00:00.012	1.307692	1.367766	1.315751
00:00:00.013	1.315018	1.281319	1.315751
00:00:00.013	1.315751	1.249817	1.307692
00:00:00.013	1.316484	1.209524	1.300366
00:00:00.014	1.318681	1.219048	1.293773
00:00:00.014	1.306227	1.315018	1.294505
00:00:00.014	1.322344	1.369963	1.311355
00:00:00.015	1.317216	1.334799	1.315751
00:00:00.015	1.317216	1.273260	1.312088
00:00:00.016	1.310623	1.268132	1.300366
00:00:00.016	1.304029	1.217582	1.288645
00:00:00.016	1.309890	1.250549	1.293040
00:00:00.018	1.309158	1.318681	1.296703
00:00:00.018	1.316484	1.334799	1.309890
00:00:00.018	1.305495	1.308425	1.309890
00:00:00.018	1.312821	1.284982	1.307692
00:00:00.018	1.324542	1.314286	1.312821
00:00:00.052	1.319414	1.339927	1.309158
00:00:00.052	1.297436	1.365568	1.300366
00:00:00.052	1.309158	1.367766	1.294505
00:00:00.052	1.320879	1.369231	1.315751
00:00:00.053	1.319414	1.357509	1.312821
00:00:00.053	1.319414	1.340659	1.315018
00:00:00.053	1.311355	1.317949	1.297436
00:00:00.053	1.322344	1.347253	1.313553
00:00:00.053	1.305495	1.323077	1.297436
00:00:00.053	1.305495	1.320879	1.316484
00:00:00.057	1.305495	1.314286	1.317949
00:00:00.057	1.305495	1.316484	1.316484
00:00:00.057	1.305495	1.298901	1.311355
00:00:00.057	1.295971	1.298901	1.300366
00:00:00.057	1.313553	1.318681	1.304029
00:00:00.057	1.320879	1.334066	1.305495
00:00:00.057	1.307692	1.309158	1.295971
00:00:00.057	1.327473	1.287179	1.274725
00:00:00.057	1.331868	1.284249	1.267399
00:00:00.057	1.320879	1.301832	1.295238
00:00:00.057	1.315018	1.399267	1.312821
00:00:00.058	1.301832	1.410256	1.309890
00:00:00.058	1.305495	1.350916	1.317949
00:00:00.058	1.298168	1.268132	1.309158
00:00:00.059	1.304762	1.206593	1.320147
00:00:00.059	1.312088	1.128205	1.295238
00:00:00.060	1.299634	1.109890	1.283516
00:00:00.060	1.308425	1.238095	1.291575
00:00:00.060	1.301099	1.328205	1.291575
00:00:00.061	1.315018	1.352381	1.309158
00:00:00.061	1.320147	1.362637	1.323810
00:00:00.061	1.314286	1.328205	1.339194
00:00:00.062	1.329670	1.324542	1.298168
00:00:00.062	1.323810	1.303297	1.329670
00:00:00.062	1.334799	1.316484	1.377289
00:00:00.063	1.329670	1.323077	1.422711
00:00:00.063	1.334799	1.330403	1.454212
00:00:00.063	1.312088	1.322344	1.384615
00:00:00.064	1.284249	1.320879	1.258608
00:00:00.064	1.267399	1.320147	1.056410
00:00:00.065	1.249084	1.316484	1.076190
00:00:00.065	1.252747	1.317216	1.178022
00:00:00.065	1.273260	1.309890	1.262271
00:00:00.066	1.284249	1.298168	1.338462
00:00:00.066	1.304029	1.320147	1.356044
00:00:00.066	1.328938	1.364835	1.343590
00:00:00.067	1.326740	1.396337	1.309890
00:00:00.067	1.329670	1.375824	1.316484
00:00:00.067	1.304762	1.309890	1.306960
00:00:00.068	1.325275	1.297436	1.332601
00:00:00.100	1.319414	1.280586	1.334799
00:00:00.100	1.323077	1.323810	1.300366
00:00:00.101	1.323810	1.394139	1.304029
00:00:00.101	1.334066	1.350183	1.323810
00:00:00.101	1.354579	1.219048	1.331136
00:00:00.102	1.333333	1.175092	1.321612
00:00:00.102	1.323077	1.161905	1.295238
00:00:00.103	1.300366	1.145055	1.300366
00:00:00.103	1.295238	1.229304	1.296703
00:00:00.103	1.305495	1.257875	1.300366
00:00:00.104	1.306960	1.296703	1.300366
00:00:00.104	1.320879	1.354579	1.317949
00:00:00.104	1.329670	1.410989	1.317216
00:00:00.105	1.315018	1.418315	1.311355
00:00:00.105	1.298168	1.342125	1.306227
00:00:00.105	1.276923	1.243223	1.296703
00:00:00.106	1.287179	1.247619	1.310623
00:00:00.106	1.294505	1.326007	1.309158
00:00:00.106	1.309158	1.358974	1.323810
00:00:00.107	1.306227	1.369963	1.323810
00:00:00.107	1.307692	1.347985	1.305495
00:00:00.107	1.313553	1.279121	1.309890
00:00:00.108	1.322344	1.265934	1.318681
00:00:00.108	1.323810	1.205128	1.312821
00:00:00.109	1.315751	1.176557	1.302564
00:00:00.109	1.304762	1.223443	1.300366
00:00:00.109	1.314286	1.372161	1.260806
00:00:00.110	1.304762	1.466667	1.249817
00:00:00.110	1.316484	1.487912	1.328938
00:00:00.110	1.313553	1.412454	1.353114
00:00:00.111	1.314286	1.305495	1.345788
00:00:00.111	1.317949	1.233700	1.383150
00:00:00.111	1.315751	1.202198	1.400733
00:00:00.112	1.305495	1.240293	1.365568
00:00:00.112	1.301832	1.353114	1.265201
00:00:00.112	1.315751	1.378022	1.186813
00:00:00.113	1.305495	1.328938	1.087179
00:00:00.113	1.308425	1.289377	1.161905
00:00:00.116	1.313553	1.261538	1.315751
00:00:00.116	1.315751	1.281319	1.336996
00:00:00.116	1.320879	1.284249	1.337729
00:00:00.116	1.319414	1.279853	1.342125
00:00:00.116	1.333333	1.298901	1.347253
00:00:00.116	1.338462	1.339927	1.370696
00:00:00.116	1.332601	1.349451	1.409524
00:00:00.116	1.318681	1.317949	1.287179
00:00:00.116	1.306227	1.314286	1.206593
00:00:00.117	1.284982	1.326740	1.354579
00:00:00.120	1.297436	1.334066	1.304029
00:00:00.120	1.279853	1.302564	1.322344
00:00:00.153	1.284982	1.315018	1.359707
00:00:00.153	1.299634	1.315018	1.235897
00:00:00.153	1.334066	1.307692	1.238828
00:00:00.153	1.320879	1.317949	1.285714
00:00:00.153	1.297436	1.288645	1.289377
00:00:00.153	1.307692	1.270330	1.280586
00:00:00.153	1.317949	1.304029	1.285714
00:00:00.153	1.320879	1.328938	1.322344
00:00:00.153	1.312088	1.320879	1.331868
00:00:00.153	1.312821	1.345055	1.335531
00:00:00.153	1.312821	1.336996	1.332601
00:00:00.154	1.300366	1.304762	1.327473
00:00:00.154	1.290110	1.295971	1.347253
00:00:00.154	1.311355	1.297436	1.341392
00:00:00.156	1.312088	1.293773	1.336264
00:00:00.156	1.309158	1.294505	1.309890
00:00:00.156	1.322344	1.304029	1.274725
00:00:00.156	1.317949	1.269597	1.264469
00:00:00.156	1.329670	1.279121	1.300366
00:00:00.156	1.325275	1.276923	1.312088
00:00:00.157	1.323077	1.294505	1.305495
00:00:00.157	1.318681	1.290842	1.265201
00:00:00.158	1.316484	1.312088	1.237363
00:00:00.158	1.312088	1.321612	1.260806
00:00:00.158	1.249817	1.311355	1.286447
00:00:00.159	1.271062	1.295971	1.286447
00:00:00.159	1.310623	1.300366	1.316484
00:00:00.159	1.318681	1.331868	1.393407
00:00:00.160	1.312088	1.394872	1.358242
00:00:00.160	1.322344	1.421978	1.333333
00:00:00.160	1.346520	1.418315	1.334799
00:00:00.161	1.328205	1.360440	1.347253
00:00:00.161	1.320147	1.274725	1.339927
00:00:00.161	1.316484	1.204396	1.323810
00:00:00.162	1.296703	1.079853	1.305495
00:00:00.162	1.289377	1.180220	1.290110
00:00:00.163	1.281319	1.380220	1.252747
00:00:00.163	1.290842	1.415385	1.224176
00:00:00.163	1.304029	1.403663	1.266667
00:00:00.164	1.316484	1.378755	1.305495
00:00:00.164	1.315751	1.283516	1.314286
00:00:00.164	1.315018	1.123810	1.306960
00:00:00.165	1.301832	1.114286	1.309158
00:00:00.165	1.312088	1.248352	1.302564
00:00:00.165	1.310623	1.312088	1.310623
00:00:00.166	1.311355	1.345055	1.312088
00:00:00.166	1.303297	1.321612	1.290842
00:00:00.166	1.315018	1.320147	1.300366
00:00:00.167	1.306960	1.306960	1.286447
00:00:00.167	1.312088	1.294505	1.290842
00:00:00.199	1.309890	1.319414	1.306960
00:00:00.200	1.306227	1.306227	1.315018
00:00:00.200	1.309890	1.289377	1.360440
00:00:00.200	1.315018	1.289377	1.330403
00:00:00.201	1.320147	1.324542	1.320879
00:00:00.201	1.322344	1.347253	1.336264
00:00:00.202	1.323077	1.375824	1.369963
00:00:00.202	1.318681	1.365568	1.347253
00:00:00.202	1.322344	1.361905	1.260806
00:00:00.203	1.309890	1.339194	1.208791
00:00:00.203	1.312821	1.331136	1.300366
00:00:00.203	1.309890	1.312088	1.286447
00:00:00.204	1.303297	1.311355	1.345788
00:00:00.204	1.292308	1.334799	1.305495
00:00:00.204	1.298168	1.333333	1.219780
00:00:00.205	1.299634	1.314286	1.276190
00:00:00.205	1.301832	1.312821	1.242491
00:00:00.205	1.306227	1.302564	1.242491
00:00:00.206	1.313553	1.269597	1.323810
00:00:00.206	1.311355	1.250549	1.345055
00:00:00.207	1.313553	1.250549	1.340659
00:00:00.209	1.319414	1.252747	1.347253
00:00:00.209	1.324542	1.307692	1.350916
00:00:00.209	1.317216	1.328938	1.355311
00:00:00.209	1.338462	1.350183	1.358974
00:00:00.209	1.336996	1.347253	1.345055
00:00:00.209	1.309890	1.370696	1.191941
00:00:00.209	1.331136	1.374359	1.217582
00:00:00.209	1.323810	1.320147	1.299634
00:00:00.210	1.309158	1.226374	1.225641
00:00:00.210	1.278388	1.210989	1.273993
00:00:00.210	1.229304	1.240293	1.303297
00:00:00.212	1.275458	1.284982	1.297436
00:00:00.212	1.290110	1.317949	1.307692
00:00:00.212	1.306960	1.331868	1.326007
00:00:00.212	1.300366	1.304762	1.318681
00:00:00.212	1.327473	1.335531	1.321612
00:00:00.213	1.323077	1.315018	1.307692
00:00:00.216	1.328205	1.299634	1.305495
00:00:00.216	1.331868	1.279853	1.326740
00:00:00.216	1.314286	1.304029	1.320147
00:00:00.216	1.323077	1.299634	1.316484
00:00:00.216	1.317216	1.280586	1.315751
00:00:00.216	1.317949	1.310623	1.321612
00:00:00.216	1.312088	1.349451	1.314286
00:00:00.216	1.296703	1.351648	1.299634
00:00:00.216	1.312088	1.353846	1.309890
00:00:00.216	1.309890	1.297436	1.289377
00:00:00.217	1.312821	1.254945	1.306227
00:00:00.217	1.309890	1.241758	1.307692
00:00:00.249	1.309158	1.268864	1.304029
00:00:00.249	1.320147	1.316484	1.305495
00:00:00.250	1.315751	1.356777	1.312821
00:00:00.250	1.298901	1.358974	1.306227
00:00:00.251	1.304029	1.350183	1.317216
00:00:00.251	1.307692	1.336264	1.310623
00:00:00.251	1.313553	1.320147	1.304762
00:00:00.252	1.314286	1.323077	1.303297
00:00:00.252	1.306227	1.279121	1.293773
00:00:00.252	1.323077	1.259341	1.297436
00:00:00.253	1.323810	1.229304	1.294505
00:00:00.253	1.301099	1.220513	1.299634
00:00:00.253	1.303297	1.239560	1.298168
00:00:00.254	1.302564	1.279121	1.294505
00:00:00.254	1.312088	1.334799	1.295971
00:00:00.254	1.312088	1.360440	1.303297
00:00:00.255	1.309890	1.355311	1.304029
00:00:00.255	1.313553	1.346520	1.315751
00:00:00.256	1.309890	1.347253	1.318681
00:00:00.256	1.314286	1.368498	1.336996
00:00:00.256	1.308425	1.347253	1.299634
00:00:00.257	1.317949	1.339194	1.297436
00:00:00.257	1.312088	1.328205	1.314286
00:00:00.257	1.305495	1.325275	1.314286
00:00:00.258	1.304762	1.301099	1.307692
00:00:00.258	1.323077	1.271795	1.296703
00:00:00.258	1.316484	1.337729	1.303297
00:00:00.259	1.311355	1.418315	1.304029
00:00:00.260	1.306227	1.375824	1.303297
00:00:00.260	1.309890	1.280586	1.306227
00:00:00.260	1.317216	1.210256	1.305495
00:00:00.260	1.307692	1.121612	1.297436
00:00:00.261	1.292308	1.052015	1.287179
00:00:00.261	1.309158	1.081319	1.292308
00:00:00.261	1.313553	1.266667	1.295238
00:00:00.262	1.312088	1.353114	1.300366
00:00:00.262	1.312088	1.404396	1.312821
00:00:00.262	1.322344	1.449817	1.315751
00:00:00.263	1.321612	1.419780	1.315751
00:00:00.263	1.320147	1.331868	1.309158
00:00:00.263	1.306960	1.267399	1.302564
00:00:00.264	1.308425	1.315018	1.299634
00:00:00.264	1.314286	1.359707	1.306227
00:00:00.265	1.314286	1.369231	1.290110
00:00:00.265	1.303297	1.353114	1.270330
00:00:00.265	1.305495	1.328938	1.295238
00:00:00.266	1.307692	1.294505	1.295238
00:00:00.266	1.303297	1.295238	1.309158
00:00:00.266	1.298168	1.280586	1.306227
00:00:00.267	1.299634	1.250549	1.296703
00:00:00.299	1.314286	1.291575	1.311355
00:00:00.299	1.316484	1.319414	1.308425
00:00:00.300	1.320879	1.320879	1.312821
00:00:00.300	1.322344	1.330403	1.317216
00:00:00.301	1.310623	1.312821	1.307692
00:00:00.301	1.312821	1.312088	1.307692
00:00:00.301	1.317949	1.290842	1.306227
00:00:00.301	1.315018	1.283516	1.306227
00:00:00.302	1.317216	1.301832	1.310623
00:00:00.302	1.312821	1.317949	1.309158
00:00:00.302	1.296703	1.316484	1.304029
00:00:00.303	1.306227	1.341392	1.303297
00:00:00.303	1.290842	1.331868	1.298168
00:00:00.303	1.309890	1.333333	1.308425
00:00:00.304	1.307692	1.317949	1.304762
00:00:00.304	1.305495	1.311355	1.312088
00:00:00.305	1.309890	1.295971	1.308425
00:00:00.305	1.309158	1.287179	1.306227
00:00:00.305	1.323077	1.295971	1.309890
00:00:00.306	1.315751	1.287912	1.300366
00:00:00.306	1.316484	1.304029	1.309890
00:00:00.306	1.320147	1.290842	1.293773
00:00:00.308	1.313553	1.266667	1.268132
00:00:00.308	1.317216	1.267399	1.289377
00:00:00.308	1.313553	1.278388	1.312821
00:00:00.308	1.305495	1.301832	1.310623
00:00:00.308	1.306227	1.318681	1.312088
00:00:00.309	1.312821	1.326740	1.312088
00:00:00.309	1.312821	1.342857	1.323810
00:00:00.309	1.318681	1.353846	1.317949
00:00:00.312	1.315751	1.339194	1.314286
00:00:00.312	1.317949	1.330403	1.323810
00:00:00.312	1.317216	1.305495	1.293773
00:00:00.312	1.316484	1.288645	1.276923
00:00:00.312	1.312088	1.290110	1.310623
00:00:00.312	1.310623	1.295971	1.319414
00:00:00.312	1.309890	1.303297	1.323810
00:00:00.312	1.307692	1.301832	1.327473
00:00:00.312	1.317216	1.326740	1.276190
00:00:00.313	1.312088	1.336996	1.240293
00:00:00.314	1.320147	1.334066	1.238828
00:00:00.314	1.306960	1.314286	1.289377
00:00:00.314	1.304029	1.310623	1.315018
00:00:00.314	1.295238	1.302564	1.330403
00:00:00.315	1.301832	1.295238	1.331136
00:00:00.315	1.303297	1.305495	1.334066
00:00:00.315	1.307692	1.313553	1.334066
00:00:00.316	1.293040	1.293040	1.328938
00:00:00.316	1.309158	1.293773	1.330403
00:00:00.316	1.306960	1.314286	1.336264
00:00:00.349	1.302564	1.309890	1.320147
00:00:00.349	1.305495	1.329670	1.249817
00:00:00.349	1.317216	1.315018	1.200000
00:00:00.350	1.318681	1.279121	1.276923
00:00:00.350	1.328205	1.271062	1.320147
00:00:00.350	1.323810	1.273993	1.316484
00:00:00.351	1.321612	1.271062	1.318681
00:00:00.351	1.316484	1.238828	1.313553
00:00:00.351	1.318681	1.281319	1.297436
00:00:00.352	1.317949	1.334799	1.312088
00:00:00.352	1.315018	1.323077	1.305495
00:00:00.353	1.312088	1.308425	1.299634
00:00:00.353	1.315751	1.310623	1.327473
00:00:00.353	1.300366	1.311355	1.328205
00:00:00.354	1.310623	1.317949	1.319414
00:00:00.354	1.315018	1.317216	1.309890
00:00:00.354	1.315018	1.320879	1.315018
00:00:00.355	1.316484	1.326740	1.310623
00:00:00.355	1.317949	1.323810	1.325275
00:00:00.355	1.318681	1.339927	1.318681
00:00:00.356	1.308425	1.347253	1.282784
00:00:00.356	1.311355	1.346520	1.290842
00:00:00.356	1.311355	1.347253	1.273993
00:00:00.357	1.315018	1.347253	1.300366
00:00:00.357	1.310623	1.372894	1.307692
00:00:00.358	1.307692	1.364103	1.309890
00:00:00.358	1.309158	1.282784	1.300366
00:00:00.358	1.301099	1.242491	1.300366
00:00:00.359	1.305495	1.202930	1.302564
00:00:00.359	1.306227	1.241758	1.297436
00:00:00.359	1.314286	1.353114	1.316484
00:00:00.360	1.315018	1.343590	1.309890
00:00:00.360	1.315751	1.312088	1.323077
00:00:00.360	1.320879	1.312821	1.307692
00:00:00.361	1.314286	1.269597	1.295238
00:00:00.361	1.312088	1.249817	1.304762
00:00:00.361	1.303297	1.187546	1.289377
00:00:00.362	1.301099	1.156777	1.300366
00:00:00.362	1.303297	1.209524	1.293040
00:00:00.363	1.311355	1.276923	1.302564
00:00:00.363	1.323810	1.312821	1.300366
00:00:00.363	1.312821	1.333333	1.298168
00:00:00.364	1.336264	1.360440	1.309158
00:00:00.364	1.326007	1.364103	1.302564
00:00:00.364	1.317216	1.368498	1.311355
00:00:00.365	1.298901	1.360440	1.304029
00:00:00.365	1.287179	1.356777	1.306227
00:00:00.365	1.290110	1.350916	1.309158
00:00:00.366	1.299634	1.372894	1.307692
00:00:00.366	1.304029	1.406593	1.303297
00:00:00.398	1.304029	1.386081	1.306227
00:00:00.399	1.313553	1.325275	1.304029
00:00:00.399	1.315751	1.262271	1.304762
00:00:00.399	1.317949	1.243956	1.298901
00:00:00.401	1.312821	1.226374	1.299634
00:00:00.401	1.322344	1.230037	1.298168
00:00:00.401	1.318681	1.257143	1.302564
00:00:00.404	1.317949	1.296703	1.300366
00:00:00.404	1.320879	1.301099	1.309890
00:00:00.404	1.315018	1.313553	1.309158
00:00:00.404	1.311355	1.312821	1.311355
00:00:00.404	1.310623	1.317949	1.309158
00:00:00.404	1.308425	1.339927	1.302564
00:00:00.404	1.309158	1.345055	1.312088
00:00:00.404	1.308425	1.308425	1.301832
00:00:00.404	1.304029	1.304029	1.298901
00:00:00.404	1.306960	1.322344	1.306960
00:00:00.404	1.303297	1.304762	1.295971
00:00:00.408	1.312088	1.316484	1.303297
00:00:00.408	1.315751	1.323810	1.304029
00:00:00.408	1.315751	1.303297	1.293040
00:00:00.408	1.318681	1.311355	1.307692
00:00:00.408	1.316484	1.317216	1.295238
00:00:00.408	1.317949	1.320879	1.306960
00:00:00.408	1.318681	1.312821	1.304762
00:00:00.408	1.313553	1.314286	1.304029
00:00:00.408	1.318681	1.328205	1.312088
00:00:00.408	1.312821	1.336996	1.309890
00:00:00.408	1.315751	1.339194	1.307692
00:00:00.409	1.312821	1.320879	1.300366
00:00:00.409	1.309158	1.295238	1.306960
00:00:00.409	1.309890	1.284982	1.300366
00:00:00.410	1.300366	1.265201	1.299634
00:00:00.410	1.300366	1.250549	1.293773
00:00:00.410	1.307692	1.267399	1.300366
00:00:00.411	1.317949	1.299634	1.306960
00:00:00.411	1.315018	1.309890	1.301832
00:00:00.412	1.295971	1.310623	1.298168
00:00:00.412	1.314286	1.312088	1.294505
00:00:00.412	1.314286	1.309890	1.304762
00:00:00.413	1.315018	1.310623	1.308425
00:00:00.413	1.309890	1.303297	1.306960
00:00:00.413	1.312088	1.309890	1.309158
00:00:00.414	1.312088	1.309890	1.312821
00:00:00.414	1.305495	1.315018	1.306960
00:00:00.414	1.306227	1.314286	1.300366
00:00:00.415	1.309158	1.322344	1.308425
00:00:00.415	1.306960	1.300366	1.298168
00:00:00.415	1.317949	1.298901	1.310623
00:00:00.417	1.312088	1.283516	1.307692
00:00:00.448	1.302564	1.279121	1.298901
00:00:00.448	1.301832	1.297436	1.297436
00:00:00.449	1.303297	1.298168	1.289377
00:00:00.449	1.315018	1.301832	1.296703
00:00:00.449	1.309158	1.297436	1.307692
00:00:00.450	1.309158	1.303297	1.307692
00:00:00.450	1.320147	1.309890	1.306227
00:00:00.451	1.312821	1.315018	1.300366
00:00:00.451	1.314286	1.321612	1.309158
00:00:00.451	1.309158	1.306227	1.303297
00:00:00.452	1.309158	1.314286	1.306227
00:00:00.452	1.317216	1.329670	1.309158
00:00:00.452	1.303297	1.312088	1.300366
00:00:00.453	1.311355	1.309158	1.310623
00:00:00.453	1.309158	1.301099	1.306960
00:00:00.453	1.306227	1.314286	1.305495
00:00:00.454	1.313553	1.322344	1.304762
00:00:00.454	1.299634	1.305495	1.300366
00:00:00.454	1.303297	1.319414	1.305495
00:00:00.455	1.312821	1.322344	1.306227
00:00:00.455	1.314286	1.317949	1.300366
00:00:00.456	1.307692	1.307692	1.295971
00:00:00.456	1.306227	1.289377	1.290110
00:00:00.456	1.315018	1.295238	1.306227
00:00:00.457	1.313553	1.274725	1.304762
00:00:00.457	1.313553	1.272527	1.307692
00:00:00.457	1.314286	1.290842	1.306960
00:00:00.458	1.315018	1.314286	1.306960
00:00:00.458	1.308425	1.315018	1.307692
00:00:00.458	1.312088	1.313553	1.303297
00:00:00.459	1.302564	1.323810	1.304762
00:00:00.459	1.312088	1.330403	1.309158
00:00:00.459	1.308425	1.315018	1.300366
00:00:00.460	1.313553	1.308425	1.309158
00:00:00.460	1.302564	1.298168	1.302564
00:00:00.461	1.319414	1.293040	1.309890
00:00:00.461	1.322344	1.298901	1.309890
00:00:00.461	1.317949	1.313553	1.308425
00:00:00.462	1.315018	1.312821	1.299634
00:00:00.462	1.320879	1.317216	1.306227
00:00:00.462	1.312088	1.316484	1.290110
00:00:00.463	1.295971	1.302564	1.294505
00:00:00.463	1.304762	1.299634	1.293773
00:00:00.463	1.301832	1.302564	1.296703
00:00:00.466	1.312821	1.305495	1.313553
00:00:00.466	1.309158	1.295238	1.301832
00:00:00.466	1.300366	1.292308	1.308425
00:00:00.466	1.315018	1.301832	1.308425
00:00:00.466	1.312821	1.309890	1.314286
00:00:00.466	1.302564	1.303297	1.306227
00:00:00.499	1.309890	1.311355	1.304029
00:00:00.499	1.310623	1.305495	1.300366
00:00:00.499	1.309890	1.313553	1.300366
00:00:00.500	1.312088	1.303297	1.304029
00:00:00.500	1.301832	1.309158	1.301832
00:00:00.500	1.316484	1.311355	1.309890
00:00:00.501	1.315018	1.306960	1.312088
00:00:00.501	1.302564	1.301099	1.297436
00:00:00.501	1.318681	1.306227	1.307692
00:00:00.501	1.314286	1.307692	1.304029
00:00:00.501	1.310623	1.310623	1.306960
00:00:00.505	1.309158	1.316484	1.306960
00:00:00.505	1.312088	1.311355	1.306227
00:00:00.505	1.298901	1.302564	1.300366
00:00:00.505	1.309158	1.309890	1.310623
00:00:00.505	1.304029	1.305495	1.299634
00:00:00.505	1.315018	1.311355	1.311355
00:00:00.505	1.312088	1.312821	1.299634
00:00:00.505	1.309158	1.312088	1.300366
00:00:00.505	1.315018	1.309890	1.311355
00:00:00.505	1.319414	1.310623	1.306227
00:00:00.505	1.319414	1.329670	1.306227
00:00:00.506	1.310623	1.322344	1.304762
00:00:00.506	1.305495	1.306227	1.301832
00:00:00.506	1.305495	1.309890	1.291575
00:00:00.507	1.315018	1.323077	1.305495
00:00:00.507	1.295971	1.295971	1.299634
00:00:00.507	1.310623	1.296703	1.309158
00:00:00.508	1.299634	1.271795	1.294505
00:00:00.508	1.309158	1.275458	1.300366
00:00:00.508	1.310623	1.269597	1.309890
00:00:00.509	1.309890	1.277656	1.298901
00:00:00.509	1.309890	1.282784	1.304029
00:00:00.510	1.317949	1.315018	1.305495
00:00:00.510	1.304762	1.321612	1.293773
00:00:00.510	1.304762	1.315018	1.300366
00:00:00.511	1.318681	1.329670	1.307692
00:00:00.511	1.317216	1.309890	1.300366
00:00:00.511	1.323810	1.301832	1.306227
00:00:00.512	1.326007	1.299634	1.305495
00:00:00.512	1.306960	1.299634	1.302564
00:00:00.512	1.320879	1.312821	1.311355
00:00:00.513	1.304762	1.317216	1.304762
00:00:00.513	1.302564	1.364103	1.302564
00:00:00.514	1.310623	1.369963	1.313553
00:00:00.514	1.312821	1.346520	1.311355
00:00:00.514	1.295238	1.328938	1.307692
00:00:00.515	1.313553	1.328205	1.309158
00:00:00.515	1.295971	1.304029	1.293773
00:00:00.515	1.301832	1.263004	1.296703
00:00:00.547	1.293040	1.227106	1.298901
00:00:00.548	1.304762	1.239560	1.301832
00:00:00.548	1.308425	1.235897	1.300366
00:00:00.549	1.319414	1.227839	1.304762
00:00:00.549	1.318681	1.342125	1.298901
00:00:00.549	1.317216	1.401465	1.303297
00:00:00.550	1.319414	1.358974	1.304762
00:00:00.550	1.317949	1.265201	1.299634
00:00:00.550	1.317949	1.246886	1.307692
00:00:00.551	1.300366	1.263736	1.298901
00:00:00.551	1.315751	1.301832	1.306227
00:00:00.551	1.313553	1.323810	1.294505
00:00:00.553	1.304029	1.336264	1.299634
00:00:00.553	1.309158	1.330403	1.302564
00:00:00.553	1.297436	1.321612	1.300366
00:00:00.553	1.316484	1.328205	1.310623
00:00:00.553	1.313553	1.311355	1.312821
00:00:00.554	1.306960	1.306227	1.302564
00:00:00.554	1.304029	1.313553	1.300366
00:00:00.554	1.309158	1.355311	1.296703
00:00:00.555	1.302564	1.359707	1.296703
00:00:00.555	1.311355	1.370696	1.307692
00:00:00.555	1.320879	1.362637	1.309158
00:00:00.556	1.320879	1.312088	1.306960
00:00:00.556	1.306227	1.243956	1.281319
00:00:00.556	1.317216	1.223443	1.309158
00:00:00.557	1.309158	1.188278	1.295238
00:00:00.557	1.308425	1.205861	1.306227
00:00:00.557	1.307692	1.262271	1.304029
00:00:00.558	1.301832	1.312821	1.304762
00:00:00.558	1.304762	1.361905	1.300366
00:00:00.559	1.311355	1.351648	1.309158
00:00:00.559	1.310623	1.320879	1.306227
00:00:00.559	1.315018	1.310623	1.306227
00:00:00.560	1.312088	1.297436	1.306227
00:00:00.560	1.312821	1.299634	1.303297
00:00:00.560	1.311355	1.293040	1.304762
00:00:00.562	1.312821	1.304029	1.303297
00:00:00.562	1.317949	1.323810	1.306960
00:00:00.562	1.318681	1.326007	1.306960
00:00:00.563	1.320879	1.321612	1.305495
00:00:00.563	1.318681	1.310623	1.307692
00:00:00.565	1.312088	1.316484	1.306960
00:00:00.565	1.315751	1.323810	1.305495
00:00:00.565	1.313553	1.326007	1.306227
00:00:00.565	1.311355	1.320879	1.306960
00:00:00.565	1.304029	1.315751	1.306227
00:00:00.565	1.312088	1.317216	1.303297
00:00:00.565	1.309158	1.313553	1.306227
00:00:00.565	1.309890	1.309158	1.306227
00:00:00.597	1.311355	1.304029	1.312088
00:00:00.602	1.317216	1.308425	1.306227
00:00:00.602	1.317216	1.305495	1.305495
00:00:00.602	1.306227	1.299634	1.304762
00:00:00.602	1.310623	1.304029	1.310623
00:00:00.602	1.309158	1.298901	1.295238
00:00:00.602	1.314286	1.304029	1.301832
00:00:00.602	1.316484	1.311355	1.308425
00:00:00.602	1.312088	1.306227	1.305495
00:00:00.602	1.313553	1.304029	1.306960
00:00:00.602	1.315751	1.309890	1.312821
00:00:00.602	1.304029	1.307692	1.306960
00:00:00.602	1.312821	1.300366	1.305495
00:00:00.602	1.301832	1.295238	1.295238
00:00:00.602	1.306227	1.306960	1.305495
00:00:00.603	1.309158	1.318681	1.310623
00:00:00.603	1.312088	1.319414	1.308425
00:00:00.603	1.317216	1.320147	1.305495
00:00:00.604	1.314286	1.323077	1.300366
00:00:00.605	1.315751	1.322344	1.293773
00:00:00.605	1.317949	1.308425	1.304762
00:00:00.605	1.309890	1.276190	1.286447
00:00:00.605	1.314286	1.272527	1.298901
00:00:00.605	1.312088	1.272527	1.298168
00:00:00.606	1.310623	1.282784	1.289377
00:00:00.606	1.316484	1.314286	1.310623
00:00:00.607	1.305495	1.309158	1.300366
00:00:00.607	1.307692	1.323077	1.307692
00:00:00.607	1.314286	1.329670	1.305495
00:00:00.608	1.311355	1.322344	1.305495
00:00:00.608	1.314286	1.320147	1.307692
00:00:00.608	1.317216	1.320879	1.305495
00:00:00.609	1.312088	1.314286	1.287179
00:00:00.609	1.312088	1.316484	1.312088
00:00:00.609	1.315018	1.305495	1.308425
00:00:00.610	1.308425	1.296703	1.300366
00:00:00.610	1.309890	1.299634	1.303297
00:00:00.610	1.313553	1.301832	1.306960
00:00:00.611	1.302564	1.309158	1.309158
00:00:00.611	1.319414	1.339194	1.309890
00:00:00.612	1.315751	1.336996	1.294505
00:00:00.612	1.315018	1.333333	1.309890
00:00:00.612	1.312088	1.288645	1.307692
00:00:00.613	1.304029	1.261538	1.298168
00:00:00.613	1.311355	1.271062	1.305495
00:00:00.613	1.314286	1.259341	1.304762
00:00:00.614	1.296703	1.240293	1.296703
00:00:00.614	1.311355	1.268864	1.300366
00:00:00.614	1.310623	1.295238	1.292308
00:00:00.615	1.301832	1.311355	1.294505
00:00:00.647	1.309158	1.323077	1.300366
00:00:00.647	1.304762	1.317949	1.300366
00:00:00.648	1.315751	1.318681	1.297436
00:00:00.648	1.311355	1.316484	1.298901
00:00:00.648	1.317949	1.314286	1.302564
00:00:00.649	1.304762	1.304029	1.293773
00:00:00.649	1.320879	1.317216	1.304762
00:00:00.649	1.317216	1.320147	1.304029
00:00:00.650	1.307692	1.306960	1.297436
00:00:00.650	1.315018	1.322344	1.312088
00:00:00.650	1.311355	1.320147	1.307692
00:00:00.651	1.301099	1.311355	1.306960
00:00:00.651	1.310623	1.315751	1.306227
00:00:00.652	1.298901	1.299634	1.298168
00:00:00.652	1.315018	1.312821	1.305495
00:00:00.652	1.312088	1.308425	1.298168
00:00:00.653	1.309158	1.308425	1.312821
00:00:00.653	1.309158	1.311355	1.307692
00:00:00.653	1.311355	1.320147	1.303297
00:00:00.654	1.317216	1.317949	1.309158
00:00:00.654	1.309158	1.304762	1.300366
00:00:00.654	1.315751	1.302564	1.306227
00:00:00.655	1.315018	1.299634	1.304029
00:00:00.655	1.307692	1.297436	1.290842
00:00:00.658	1.315751	1.297436	1.306227
00:00:00.658	1.323810	1.297436	1.309158
00:00:00.658	1.322344	1.313553	1.310623
00:00:00.658	1.322344	1.315018	1.312821
00:00:00.658	1.302564	1.304762	1.306227
00:00:00.658	1.315018	1.311355	1.310623
00:00:00.659	1.316484	1.309158	1.307692
00:00:00.659	1.308425	1.304029	1.295971
00:00:00.659	1.302564	1.306960	1.303297
00:00:00.660	1.306227	1.313553	1.306960
00:00:00.660	1.313553	1.309890	1.295971
00:00:00.660	1.314286	1.309890	1.295238
00:00:00.660	1.312088	1.303297	1.290110
00:00:00.660	1.306960	1.304762	1.295238
00:00:00.665	1.318681	1.307692	1.304762
00:00:00.665	1.312821	1.301099	1.303297
00:00:00.665	1.317949	1.301832	1.305495
00:00:00.665	1.315018	1.298168	1.302564
00:00:00.665	1.306960	1.302564	1.312088
00:00:00.665	1.311355	1.316484	1.310623
00:00:00.665	1.306227	1.312821	1.307692
00:00:00.665	1.310623	1.316484	1.305495
00:00:00.665	1.315751	1.309890	1.302564
00:00:00.665	1.292308	1.288645	1.295971
00:00:00.665	1.307692	1.300366	1.306960
00:00:00.665	1.309158	1.307692	1.312088
00:00:00.697	1.295971	1.304762	1.302564
00:00:00.697	1.312088	1.321612	1.309158
00:00:00.697	1.309158	1.312821	1.294505
00:00:00.698	1.312088	1.318681	1.303297
00:00:00.698	1.307692	1.339194	1.306227
00:00:00.698	1.305495	1.339927	1.298168
00:00:00.699	1.315018	1.315018	1.311355
00:00:00.699	1.312088	1.287179	1.307692
00:00:00.700	1.315751	1.265934	1.302564
00:00:00.700	1.314286	1.271795	1.307692
00:00:00.700	1.303297	1.274725	1.297436
00:00:00.701	1.312088	1.271062	1.300366
00:00:00.701	1.302564	1.268864	1.292308
00:00:00.701	1.304762	1.314286	1.306227
00:00:00.702	1.315018	1.334066	1.309158
00:00:00.702	1.309158	1.334799	1.304029
00:00:00.702	1.309890	1.350183	1.308425
00:00:00.703	1.316484	1.328205	1.305495
00:00:00.703	1.301832	1.321612	1.299634
00:00:00.703	1.318681	1.323077	1.310623
00:00:00.704	1.308425	1.291575	1.305495
00:00:00.704	1.312821	1.268864	1.308425
00:00:00.705	1.310623	1.264469	1.295238
00:00:00.705	1.314286	1.281319	1.304762
00:00:00.705	1.309158	1.298901	1.299634
00:00:00.706	1.309158	1.306227	1.306227
00:00:00.706	1.313553	1.323810	1.304029
00:00:00.706	1.305495	1.323077	1.306960
00:00:00.707	1.304029	1.329670	1.305495
00:00:00.707	1.312088	1.342125	1.304029
00:00:00.707	1.309158	1.367766	1.303297
00:00:00.708	1.309158	1.328938	1.304762
00:00:00.708	1.311355	1.351648	1.304029
00:00:00.709	1.302564	1.345055	1.303297
00:00:00.709	1.315018	1.292308	1.312088
00:00:00.709	1.312821	1.191209	1.293040
00:00:00.710	1.317216	1.185348	1.300366
00:00:00.710	1.320147	1.219048	1.306227
00:00:00.710	1.309890	1.240293	1.298168
00:00:00.711	1.322344	1.300366	1.308425
00:00:00.711	1.316484	1.295971	1.306227
00:00:00.711	1.312088	1.304762	1.293773
00:00:00.712	1.315751	1.333333	1.300366
00:00:00.712	1.301099	1.326007	1.299634
00:00:00.712	1.309890	1.342125	1.306960
00:00:00.713	1.305495	1.336996	1.297436
00:00:00.713	1.312088	1.340659	1.310623
00:00:00.713	1.304762	1.330403	1.301832
00:00:00.714	1.295971	1.327473	1.307692
00:00:00.714	1.306960	1.339927	1.311355
00:00:00.746	1.306227	1.323077	1.293773
00:00:00.747	1.309890	1.317216	1.307692
00:00:00.747	1.310623	1.306227	1.301099
00:00:00.747	1.311355	1.296703	1.299634
00:00:00.748	1.320147	1.306960	1.313553
00:00:00.748	1.311355	1.293040	1.296703
00:00:00.750	1.323810	1.302564	1.304029
00:00:00.750	1.315018	1.315018	1.308425
00:00:00.750	1.304029	1.322344	1.309158
00:00:00.750	1.307692	1.326740	1.304762
00:00:00.750	1.306227	1.318681	1.304762
00:00:00.750	1.311355	1.300366	1.304029
00:00:00.751	1.308425	1.271795	1.303297
00:00:00.751	1.304029	1.265201	1.296703
00:00:00.751	1.309158	1.275458	1.304762
00:00:00.752	1.312088	1.304029	1.301832
00:00:00.752	1.312088	1.330403	1.304762
00:00:00.752	1.309890	1.345055	1.305495
00:00:00.754	1.311355	1.338462	1.306227
00:00:00.754	1.315018	1.317949	1.306960
00:00:00.755	1.308425	1.299634	1.309158
00:00:00.755	1.304762	1.262271	1.293040
00:00:00.755	1.312088	1.246886	1.293773
00:00:00.755	1.320147	1.252015	1.308425
00:00:00.755	1.315018	1.252747	1.303297
00:00:00.755	1.305495	1.289377	1.297436
00:00:00.756	1.314286	1.319414	1.295238
00:00:00.756	1.308425	1.324542	1.300366
00:00:00.756	1.305495	1.326007	1.300366
00:00:00.757	1.312821	1.326740	1.305495
00:00:00.757	1.296703	1.309158	1.298168
00:00:00.757	1.310623	1.310623	1.298901
00:00:00.758	1.312088	1.320879	1.306960
00:00:00.758	1.309158	1.320879	1.312821
00:00:00.762	1.315751	1.323810	1.314286
00:00:00.762	1.312088	1.315751	1.309158
00:00:00.762	1.313553	1.320147	1.304029
00:00:00.762	1.314286	1.317949	1.303297
00:00:00.762	1.317949	1.311355	1.306227
00:00:00.762	1.315751	1.296703	1.307692
00:00:00.762	1.312088	1.281319	1.295238
00:00:00.762	1.317216	1.288645	1.306227
00:00:00.762	1.312088	1.284982	1.300366
00:00:00.762	1.301099	1.290842	1.300366
00:00:00.762	1.304762	1.309890	1.293040
00:00:00.762	1.313553	1.331868	1.304029
00:00:00.763	1.312088	1.336264	1.309158
00:00:00.763	1.310623	1.321612	1.308425
00:00:00.764	1.312088	1.315751	1.306960
00:00:00.764	1.315751	1.313553	1.314286
00:00:00.796	1.304762	1.299634	1.297436
00:00:00.796	1.316484	1.314286	1.303297
00:00:00.797	1.309158	1.312088	1.309158
00:00:00.797	1.312088	1.309158	1.304029
00:00:00.798	1.305495	1.339194	1.300366
00:00:00.798	1.309890	1.367033	1.304762
00:00:00.798	1.305495	1.335531	1.309890
00:00:00.799	1.316484	1.304762	1.309158
00:00:00.799	1.306227	1.260806	1.296703
00:00:00.799	1.311355	1.258608	1.293040
00:00:00.800	1.315751	1.272527	1.309158
00:00:00.800	1.315018	1.226374	1.300366
00:00:00.800	1.309158	1.239560	1.300366
00:00:00.801	1.305495	1.287179	1.298901
00:00:00.801	1.312821	1.319414	1.310623
00:00:00.801	1.311355	1.327473	1.305495
00:00:00.802	1.309890	1.320879	1.305495
00:00:00.802	1.298168	1.311355	1.297436
00:00:00.803	1.309158	1.317216	1.300366
00:00:00.803	1.309158	1.317949	1.309158
00:00:00.803	1.314286	1.312821	1.303297
00:00:00.804	1.309158	1.312088	1.304029
00:00:00.804	1.309158	1.318681	1.304029
00:00:00.804	1.311355	1.322344	1.308425
00:00:00.805	1.317216	1.326740	1.303297
00:00:00.805	1.312088	1.328205	1.298901
00:00:00.805	1.317216	1.325275	1.309158
00:00:00.806	1.313553	1.314286	1.309158
00:00:00.806	1.316484	1.318681	1.310623
00:00:00.806	1.315751	1.326740	1.309158
00:00:00.807	1.303297	1.323077	1.306960
00:00:00.807	1.312088	1.313553	1.298901
00:00:00.808	1.313553	1.311355	1.307692
00:00:00.808	1.301832	1.283516	1.298901
00:00:00.808	1.309158	1.271795	1.300366
00:00:00.809	1.309890	1.253480	1.298168
00:00:00.809	1.309158	1.254945	1.300366
00:00:00.809	1.312088	1.291575	1.304762
00:00:00.810	1.316484	1.345055	1.306227
00:00:00.810	1.307692	1.340659	1.299634
00:00:00.810	1.315751	1.313553	1.306227
00:00:00.811	1.314286	1.298901	1.312821
00:00:00.811	1.318681	1.284982	1.304762
00:00:00.811	1.317949	1.282051	1.310623
00:00:00.812	1.314286	1.269597	1.300366
00:00:00.812	1.313553	1.281319	1.309890
00:00:00.813	1.309890	1.301099	1.304029
00:00:00.814	1.298168	1.310623	1.300366
00:00:00.814	1.315018	1.331868	1.306227
00:00:00.814	1.313553	1.330403	1.312088
00:00:00.846	1.308425	1.328938	1.300366
00:00:00.846	1.319414	1.339194	1.308425
00:00:00.847	1.312088	1.327473	1.302564
00:00:00.847	1.301099	1.306227	1.304762
00:00:00.847	1.320147	1.306960	1.306960
00:00:00.848	1.308425	1.288645	1.306960
00:00:00.848	1.311355	1.284249	1.308425
00:00:00.848	1.300366	1.286447	1.298168
00:00:00.852	1.312088	1.307692	1.309890
00:00:00.852	1.318681	1.309158	1.309158
00:00:00.852	1.317949	1.312088	1.304029
00:00:00.852	1.304029	1.301832	1.293040
00:00:00.852	1.312088	1.318681	1.310623
00:00:00.852	1.317949	1.313553	1.311355
00:00:00.852	1.297436	1.300366	1.299634
00:00:00.852	1.311355	1.293773	1.307692
00:00:00.852	1.308425	1.295238	1.304762
00:00:00.852	1.302564	1.302564	1.306227
00:00:00.852	1.313553	1.309158	1.305495
00:00:00.853	1.298901	1.294505	1.298901
00:00:00.853	1.312088	1.310623	1.304029
00:00:00.853	1.317216	1.321612	1.307692
00:00:00.854	1.316484	1.323810	1.307692
00:00:00.854	1.322344	1.320147	1.312088
00:00:00.854	1.320147	1.300366	1.304029
00:00:00.858	1.317949	1.303297	1.306960
00:00:00.858	1.317949	1.312821	1.314286
00:00:00.858	1.309158	1.310623	1.305495
00:00:00.858	1.306227	1.309158	1.306227
00:00:00.858	1.298901	1.299634	1.296703
00:00:00.858	1.312821	1.310623	1.300366
00:00:00.858	1.309158	1.308425	1.306960
00:00:00.858	1.298901	1.300366	1.292308
00:00:00.858	1.308425	1.299634	1.298901
00:00:00.858	1.312088	1.290842	1.293040
00:00:00.858	1.293040	1.291575	1.293773
00:00:00.859	1.312088	1.301832	1.305495
00:00:00.859	1.317949	1.307692	1.308425
00:00:00.859	1.301832	1.292308	1.304029
00:00:00.860	1.310623	1.295238	1.303297
00:00:00.860	1.320147	1.304029	1.309158
00:00:00.860	1.302564	1.298168	1.303297
00:00:00.861	1.312088	1.301099	1.294505
00:00:00.861	1.315018	1.316484	1.311355
00:00:00.862	1.309890	1.310623	1.304029
00:00:00.862	1.317949	1.316484	1.309158
00:00:00.862	1.306960	1.307692	1.300366
00:00:00.863	1.312821	1.312088	1.300366
00:00:00.863	1.314286	1.311355	1.305495
00:00:00.863	1.312088	1.314286	1.308425
